ECG
0.022766
0.044727
0.038938
0.041227
0.038983
0.03977
0.039021
0.039203
0.039073
0.039137
0.03936
0.039438
0.03941
0.039674
0.039787
0.04023
0.040999
0.042137
0.043282
0.044834
0.046356
0.047602
0.049304
0.049989
0.050288
0.050449
0.049959
0.049073
0.047346
0.045914
0.044105
0.041822
0.039676
0.037745
0.036027
0.034721
0.033619
0.032642
0.032332
0.032137
0.032267
0.032128
0.032332
0.032887
0.033577
0.034546
0.035262
0.035503
0.035294
0.035002
0.033645
0.031685
0.02975
0.026757
0.023997
0.020541
0.017095
0.013694
0.0098512
0.0059508
0.0019099
-0.0021146
-0.00605
-0.0095402
-0.01294
-0.015812
-0.018192
-0.019529
-0.020218
-0.020433
-0.019549
-0.018161
-0.01616
-0.013633
-0.010672
-0.0071403
-0.0037403
-8.10E-05
0.0032385
0.00619
0.0094269
0.012415
0.015091
0.017614
0.020026
0.022356
0.024522
0.026419
0.028641
0.030631
0.032296
0.033991
0.035569
0.036788
0.038232
0.039295
0.040326
0.041378
0.042145
0.042516
0.04288
0.042699
0.042195
0.041356
0.040019
0.039662
0.039008
0.038702
0.038654
0.038605
0.038698
0.038619
0.03831
0.037992
0.037236
0.036347
0.03543
0.03454
0.033436
0.03245
0.031354
0.03023
0.029028
0.027844
0.026573
0.025286
0.023424
0.021893
0.020129
0.01837
0.016486
0.014896
0.013877
0.013596
0.013867
0.015275
0.017792
0.020972
0.024828
0.028777
0.03237
0.035946
0.038625
0.040107
0.040174
0.038836
0.035537
0.030812
0.024706
0.017415
0.0091281
5.45E-05
-0.0095
-0.020418
-0.031616
-0.043178
-0.054723
-0.065673
-0.076626
-0.08611
-0.093889
-0.099046
-0.1009
-0.099338
-0.093573
-0.083429
-0.069343
-0.051084
-0.029562
-0.0049346
0.021811
0.051325
0.08157
0.11394
0.14772
0.18225
0.21747
0.25302
0.28918
0.32477
0.35928
0.39262
0.42345
0.45161
0.4763
0.49678
0.51257
0.52275
0.52764
0.52682
0.51976
0.50729
0.48929
0.46685
0.43937
0.40773
0.37298
0.33518
0.29513
0.25298
0.21007
0.16698
0.12428
0.083316
0.044447
0.0080462
-0.0246
-0.05312
-0.077633
-0.097131
-0.11185
-0.12151
-0.12671
-0.12753
-0.12458
-0.11813
-0.10915
-0.097963
-0.085486
-0.072088
-0.058194
-0.044636
-0.031882
-0.020231
-0.0098845
-0.0015761
0.0051737
0.010243
0.013857
0.015803
0.016633
0.016163
0.01522
0.013464
0.011268
0.0095082
0.0077898
0.0063636
0.0049758
0.0040136
0.0032331
0.0024401
0.0020711
0.00194
0.002237
0.0026299
0.0032254
0.003477
0.0041959
0.0045045
0.0042736
0.0036725
0.002564
0.0017247
-0.00029907
-0.002426
-0.0047747
-0.0076579
-0.01099
-0.014474
-0.018087
-0.021933
-0.025737
-0.029431
-0.033323
-0.037189
-0.040413
-0.043586
-0.045972
-0.04748
-0.048805
-0.049932
-0.050561
-0.051867
-0.053105
-0.054708
-0.056661
-0.059011
-0.061264
-0.063029
-0.064777
-0.065414
-0.065888
-0.065683
-0.065134
-0.063899
-0.062476
-0.061298
-0.059245
-0.057694
-0.055906
-0.054174
-0.052282
-0.050525
-0.048734
-0.046709
-0.044975
-0.043242
-0.041649
-0.040408
-0.039782
-0.039246
-0.039494
-0.039767
-0.039684
-0.039846
-0.03945
-0.038719
-0.037336
-0.035701
-0.03369
-0.03129
-0.028474
-0.025615
-0.022482
-0.019479
-0.016689
-0.01471
-0.01283
-0.011685
-0.011073
-0.010695
-0.010813
-0.011178
-0.011854
-0.012699
-0.013304
-0.014789
-0.016189
-0.018056
-0.019497
-0.021255
-0.022714
-0.023325
-0.023844
-0.023601
-0.023404
-0.022741
-0.021134
-0.019371
-0.017324
-0.015403
-0.013669
-0.012223
-0.012148
-0.01264
-0.014321
-0.01698
-0.021033
-0.026209
-0.032669
-0.040301
-0.048744
-0.058031
-0.067983
-0.07808
-0.088941
-0.099404
-0.11019
-0.12064
-0.13087
-0.14016
-0.14898
-0.15712
-0.16421
-0.16981
-0.17421
-0.17753
-0.17915
-0.17972
-0.17953
-0.17829
-0.17597
-0.17346
-0.16987
-0.166
-0.16118
-0.15624
-0.15062
-0.14487
-0.139
-0.13275
-0.12674
-0.12079
-0.11478
-0.10881
-0.10273
-0.096801
-0.091139
-0.085833
-0.081485
-0.077627
-0.074507
-0.072139
-0.070789
-0.070205
-0.070662
-0.072145
-0.075032
-0.078609
-0.0832
-0.088794
-0.095058
-0.10185
-0.10913
-0.11664
-0.12373
-0.13046
-0.13714
-0.14295
-0.14768
-0.15117
-0.15307
-0.15343
-0.1529
-0.15048
-0.14691
-0.143
-0.13826
-0.13389
-0.12933
-0.1255
-0.12237
-0.12003
-0.11936
-0.12007
-0.12189
-0.12558
-0.13055
-0.13732
-0.14538
-0.15451
-0.16468
-0.1754
-0.18676
-0.19801
-0.20879
-0.21887
-0.22793
-0.23575
-0.24186
-0.24637
-0.24833
-0.24842
-0.24662
-0.24248
-0.23657
-0.22944
-0.22089
-0.21121
-0.20105
-0.19014
-0.17928
-0.16801
-0.15657
-0.14507
-0.13382
-0.12208
-0.11037
-0.09795
-0.08561
-0.072631
-0.059776
-0.047634
-0.03558
-0.024425
-0.013787
-0.0040926
0.0045767
0.012185
0.019021
0.024614
0.028712
0.031462
0.033126
0.03336
0.03197
0.02943
0.025694
0.021234
0.016104
0.010462
0.0049856
-0.0004635
-0.0052264
-0.0096811
-0.01313
-0.014938
-0.015729
-0.015033
-0.013079
-0.0096047
-0.0048315
0.00099261
0.0079357
0.016008
0.025008
0.034542
0.044472
0.054985
0.065185
0.074974
0.084085
0.093134
0.1014
0.1085
0.11511
0.12059
0.1252
0.12945
0.13288
0.13591
0.13825
0.14031
0.14193
0.14308
0.14456
0.14537
0.14644
0.14757
0.14838
0.14989
0.15187
0.15428
0.1573
0.16066
0.16461
0.16871
0.17339
0.17775
0.18245
0.18719
0.19161
0.19545
0.19905
0.20163
0.20322
0.20392
0.20354
0.20264
0.20104
0.19875
0.19628
0.19238
0.18716
0.18091
0.17319
0.16467
0.15469
0.14425
0.13311
0.12229
0.11179
0.10138
0.091677
0.082479
0.074712
0.066752
0.060216
0.054534
0.050258
0.047722
0.046478
0.046666
0.048465
0.051293
0.055634
0.060786
0.066221
0.07248
0.078524
0.084149
0.089874
0.095071
0.099843
0.10359
0.10626
0.10845
0.10936
0.10966
0.10848
0.10656
0.10421
0.10091
0.097496
0.093577
0.089594
0.085965
0.082371
0.079664
0.077997
0.076368
0.075992
0.076053
0.076989
0.078847
0.080314
0.082826
0.085354
0.088056
0.090492
0.092274
0.094092
0.095077
0.095716
0.095793
0.095288
0.094373
0.093296
0.091369
0.08995
0.088178
0.08695
0.085703
0.08476
0.084241
0.084066
0.084674
0.085272
0.08679
0.088363
0.090588
0.093429
0.095841
0.099004
0.10188
0.10505
0.10779
0.11076
0.11317
0.11453
0.11575
0.11615
0.11622
0.11562
0.11468
0.11345
0.11147
0.10953
0.10723
0.10463
0.1019
0.099258
0.096316
0.093881
0.091733
0.090356
0.089536
0.089273
0.089605
0.090644
0.092033
0.09375
0.095663
0.097501
0.0994
0.1013
0.10283
0.10385
0.10425
0.10432
0.10347
0.10157
0.099296
0.096219
0.092049
0.087728
0.08248
0.077589
0.072252
0.066339
0.060555
0.055211
0.050341
0.046123
0.042494
0.039853
0.037737
0.036318
0.035606
0.035548
0.036035
0.036926
0.038229
0.03984
0.041934
0.044184
0.046513
0.049399
0.052113
0.054935
0.057621
0.06039
0.062728
0.065232
0.067539
0.069806
0.072158
0.074379
0.07655
0.078711
0.080249
0.082086
0.08382
0.085309
0.087003
0.088664
0.09028
0.091378
0.092695
0.093839
0.094685
0.095236
0.095963
0.096461
0.097303
0.098076
0.099941
0.10216
0.10485
0.10784
0.1114
0.1144
0.11801
0.12138
0.12409
0.12692
0.12917
0.13161
0.13405
0.13618
0.13778
0.13888
0.13892
0.13834
0.1364
0.13323
0.12963
0.12474
0.11938
0.11296
0.107
0.10014
0.093655
0.087149
0.080722
0.074222
0.067334
0.060353
0.053616
0.046971
0.040082
0.033309
0.026805
0.019899
0.013788
0.007963
0.0026232
-0.0023396
-0.0065038
-0.0099954
-0.012707
-0.014218
-0.014698
-0.013923
-0.012269
-0.0095936
-0.0056657
-0.00091894
0.0047597
0.010914
0.017664
0.025087
0.032764
0.04063
0.048518
0.056004
0.063263
0.069685
0.075408
0.080217
0.083743
0.086926
0.088858
0.090202
0.09033
0.090023
0.08899
0.087162
0.085426
0.083292
0.080746
0.078995
0.076533
0.07434
0.072633
0.071139
0.069984
0.06949
0.069414
0.069305
0.069977
0.071193
0.072276
0.073764
0.075411
0.076591
0.078229
0.079601
0.080171
0.080906
0.081613
0.081843
0.081938
0.081503
0.081347
0.080801
0.080307
0.079932
0.079614
0.078849
0.078537
0.078242
0.077626
0.077389
0.077432
0.077514
0.07765
0.078034
0.078717
0.078684
0.078574
0.078065
0.076689
0.074821
0.072287
0.069417
0.066101
0.062476
0.058992
0.05582
0.052677
0.049463
0.047038
0.044581
0.042409
0.04082
0.039479
0.038851
0.038509
0.039005
0.039886
0.041228
0.04376
0.046654
0.050633
0.055528
0.061506
0.068139
0.075213
0.081437
0.087675
0.093557
0.098137
0.10169
0.10452
0.10565
0.10618
0.10563
0.10443
0.10202
0.098885
0.094858
0.090032
0.083967
0.078484
0.071769
0.064522
0.056614
0.048408
0.040237
0.032028
0.024144
0.016821
0.010466
0.0047719
0.00063278
-0.0023959
-0.0041941
-0.0046984
-0.0039516
-0.002709
-0.00020813
0.0026223
0.0064725
0.010639
0.01557
0.020681
0.025694
0.031096
0.036387
0.041405
0.045834
0.049956
0.05389
0.057379
0.060243
0.063287
0.06562
0.068202
0.070244
0.072514
0.074892
0.077558
0.08001
0.082822
0.08598
0.089217
0.092793
0.095987
0.099196
0.10223
0.10508
0.10697
0.10845
0.10946
0.10966
0.10933
0.10794
0.1059
0.10285
0.098543
0.093777
0.08806
0.082089
0.075687
0.068895
0.061665
0.054591
0.047599
0.04088
0.034229
0.028357
0.023223
0.018427
0.014512
0.011145
0.0083803
0.0064553
0.0050573
0.0041572
0.0041982
0.0045281
0.0053352
0.0071258
0.0091864
0.011836
0.014877
0.018427
0.021797
0.025357
0.028653
0.031723
0.034515
0.036952
0.039514
0.041355
0.043431
0.044729
0.045903
0.046765
0.046775
0.046717
0.045918
0.04482
0.043198
0.041383
0.039654
0.037874
0.036255
0.035066
0.033972
0.03332
0.03298
0.032943
0.03329
0.034129
0.035625
0.037276
0.039602
0.042036
0.044935
0.047735
0.050914
0.05399
0.056656
0.059213
0.060972
0.062047
0.062739
0.063074
0.06277
0.061954
0.061099
0.059385
0.057911
0.056128
0.054469
0.052488
0.051129
0.049812
0.048569
0.047441
0.046757
0.046641
0.046574
0.04676
0.047585
0.048746
0.050312
0.051862
0.053705
0.056075
0.058316
0.060314
0.062288
0.064469
0.066864
0.069341
0.071957
0.075101
0.078433
0.081554
0.084893
0.088264
0.091454
0.093728
0.095511
0.09636
0.096161
0.095201
0.093224
0.09036
0.086231
0.081121
0.075286
0.068061
0.06044
0.052061
0.043451
0.03441
0.025629
0.016439
0.0076896
-0.00036711
-0.007619
-0.013833
-0.019061
-0.022467
-0.024375
-0.024742
-0.023488
-0.020909
-0.017357
-0.01221
-0.0062279
4.79E-05
0.007202
0.014655
0.022023
0.029309
0.036415
0.042813
0.048705
0.053725
0.05805
0.061146
0.06334
0.064412
0.064327
0.063183
0.061314
0.058769
0.055336
0.051278
0.046802
0.042153
0.03726
0.032046
0.026983
0.022113
0.018001
0.01352
0.0099211
0.0065464
0.0037623
0.001685
1.74E-05
-0.0010041
-0.0013877
-0.0010103
0.00011853
0.0019247
0.0043383
0.0068548
0.0099878
0.012975
0.015751
0.018591
0.021474
0.024045
0.026273
0.027877
0.028987
0.029912
0.030002
0.03014
0.029345
0.028361
0.026985
0.025346
0.02364
0.021757
0.019694
0.018073
0.017154
0.016529
0.017046
0.018767
0.021479
0.02539
0.030255
0.035782
0.042121
0.048429
0.055105
0.061449
0.067169
0.072172
0.076532
0.079621
0.081313
0.082522
0.082206
0.0809
0.078522
0.074529
0.06907
0.062089
0.054253
0.045785
0.037167
0.028254
0.019783
0.012231
0.0058923
0.00086896
-0.0025158
-0.0045815
-0.0045159
-0.0032349
-0.00033874
0.0042526
0.010157
0.017184
0.025011
0.033021
0.041851
0.050324
0.058078
0.065442
0.072008
0.07725
0.08115
0.084057
0.086106
0.086917
0.086369
0.083909
0.080561
0.07579
0.068526
0.060296
0.050204
0.039114
0.027207
0.013934
0.00030007
-0.013588
-0.02777
-0.041739
-0.056021
-0.069641
-0.082785
-0.094808
-0.10596
-0.11516
-0.12254
-0.1274
-0.12971
-0.12853
-0.12374
-0.1148
-0.10195
-0.085471
-0.066126
-0.044038
-0.019522
0.007212
0.035876
0.066116
0.097326
0.12996
0.16376
0.19809
0.23309
0.26831
0.30324
0.33734
0.37028
0.40171
0.43127
0.45796
0.48215
0.5024
0.51926
0.53152
0.53944
0.54307
0.54184
0.53619
0.52561
0.51094
0.49154
0.46864
0.44103
0.40992
0.37551
0.33849
0.29895
0.25781
0.21557
0.17327
0.13217
0.092514
0.055844
0.021311
-0.0092104
-0.036242
-0.059577
-0.078411
-0.093584
-0.10477
-0.1124
-0.11648
-0.11729
-0.11554
-0.11111
-0.1052
-0.097224
-0.088468
-0.078845
-0.068411
-0.058094
-0.047819
-0.037504
-0.027953
-0.018738
-0.010471
-0.0029415
0.0035899
0.0089721
0.012941
0.016145
0.018079
0.018975
0.019128
0.018527
0.017463
0.0156
0.013332
0.010375
0.0069251
0.0033885
-0.00059611
-0.004669
-0.0091504
-0.013737
-0.018387
-0.022572
-0.026699
-0.030344
-0.033124
-0.035346
-0.036898
-0.037558
-0.037996
-0.037707
-0.036786
-0.035412
-0.033647
-0.031788
-0.029474
-0.02694
-0.024405
-0.021711
-0.01906
-0.016066
-0.012929
-0.0096855
-0.0069428
-0.0038395
-0.0016501
0.00069672
0.0026872
0.0041237
0.0060645
0.0076186
0.0091489
0.010341
0.011485
0.01217
0.01245
0.012886
0.012837
0.012647
0.012265
0.011425
0.010207
0.0086879
0.0064361
0.0041188
0.0010018
-0.0019629
-0.0057592
-0.009351
-0.013047
-0.016671
-0.020142
-0.023641
-0.026972
-0.030221
-0.033495
-0.036519
-0.039137
-0.041474
-0.043
-0.044156
-0.044254
-0.043808
-0.042711
-0.040657
-0.037946
-0.034845
-0.031605
-0.028216
-0.025031
-0.022415
-0.020176
-0.018559
-0.017602
-0.01762
-0.017898
-0.018826
-0.020461
-0.022155
-0.024049
-0.026173
-0.028061
-0.030038
-0.032084
-0.033618
-0.035317
-0.036512
-0.037512
-0.038247
-0.038722
-0.039004
-0.038687
-0.038547
-0.038133
-0.037525
-0.03733
-0.037165
-0.037472
-0.038091
-0.038948
-0.03992
-0.040914
-0.042312
-0.043342
-0.043726
-0.044068
-0.044006
-0.043659
-0.042965
-0.041891
-0.040789
-0.039007
-0.036892
-0.034616
-0.031595
-0.028288
-0.024727
-0.021347
-0.018159
-0.01522
-0.013389
-0.012552
-0.012569
-0.014119
-0.017172
-0.021578
-0.027288
-0.034516
-0.043005
-0.052452
-0.062717
-0.073429
-0.08467
-0.09628
-0.10746
-0.11826
-0.12911
-0.13907
-0.14799
-0.15643
-0.16336
-0.16921
-0.17387
-0.17709
-0.17915
-0.17962
-0.17925
-0.17774
-0.17511
-0.17222
-0.16846
-0.16488
-0.16083
-0.15694
-0.15316
-0.14919
-0.14572
-0.14248
-0.14003
-0.13813
-0.13672
-0.13611
-0.13635
-0.13719
-0.13834
-0.14001
-0.14158
-0.14371
-0.14527
-0.1464
-0.14744
-0.14766
-0.14733
-0.14648
-0.14518
-0.14373
-0.14168
-0.13966
-0.13765
-0.13593
-0.13434
-0.13326
-0.13221
-0.13174
-0.13179
-0.13211
-0.13272
-0.13395
-0.1356
-0.13754
-0.14027
-0.14312
-0.14601
-0.1487
-0.15093
-0.15262
-0.1534
-0.15316
-0.15238
-0.15007
-0.14714
-0.1431
-0.13894
-0.13401
-0.12872
-0.12326
-0.11756
-0.11174
-0.1055
-0.099459
-0.093275
-0.087644
-0.08197
-0.076807
-0.071663
-0.067201
-0.06324
-0.060048
-0.057055
-0.054327
-0.05211
-0.049461
-0.046629
-0.043696
-0.039997
-0.035887
-0.031304
-0.026185
-0.020784
-0.01487
-0.0090237
-0.002938
0.0030618
0.0087669
0.014429
0.019536
0.024973
0.030428
0.035891
0.041167
0.046686
0.051924
0.057081
0.061991
0.066629
0.07108
0.075242
0.078906
0.082321
0.086132
0.089892
0.093342
0.096934
0.1006
0.10351
0.10654
0.10938
0.11216
0.1146
0.11668
0.11916
0.1214
0.12341
0.126
0.12822
0.13093
0.13368
0.13697
0.14059
0.14457
0.14837
0.15286
0.15757
0.16262
0.1681
0.17358
0.17905
0.18461
0.1896
0.19454
0.19874
0.20232
0.20532
0.20713
0.208
0.2076
0.20633
0.20331
0.19911
0.19332
0.18629
0.17851
0.16981
0.16049
0.15048
0.14041
0.13045
0.12088
0.11223
0.10406
0.096893
0.090278
0.084977
0.080829
0.078509
0.076828
0.07669
0.078152
0.08045
0.084263
0.089364
0.095616
0.10213
0.10902
0.11592
0.12274
0.12943
0.13531
0.14115
0.14608
0.1504
0.15376
0.15677
0.15867
0.16015
0.16038
0.16018
0.15913
0.15719
0.15473
0.15187
0.14865
0.1456
0.14244
0.13931
0.13594
0.13302
0.13028
0.12754
0.12508
0.12234
0.11989
0.11787
0.11569
0.11378
0.11159
0.11001
0.10845
0.10681
0.10547
0.10415
0.10329
0.10221
0.10142
0.10048
0.099536
0.098253
0.097174
0.095835
0.094187
0.092936
0.09147
0.090541
0.089838
0.089373
0.08919
0.089522
0.089793
0.090085
0.09043
0.090865
0.09111
0.091104
0.091102
0.090937
0.090483
0.090006
0.089602
0.088889
0.088485
0.087972
0.087334
0.086887
0.086342
0.085985
0.08605
0.086363
0.087018
0.088111
0.089538
0.091059
0.093204
0.095303
0.097701
0.1002
0.10274
0.10555
0.10824
0.11107
0.11373
0.11636
0.11875
0.12123
0.1235
0.12549
0.12747
0.12899
0.12982
0.12998
0.12968
0.12818
0.126
0.12296
0.11917
0.11471
0.10964
0.10437
0.098786
0.093077
0.087557
0.081608
0.076608
0.070637
0.064996
0.059687
0.054727
0.049921
0.045904
0.042899
0.040475
0.039005
0.038845
0.039426
0.040764
0.042979
0.045824
0.048934
0.052516
0.05567
0.059055
0.0625
0.065045
0.067615
0.069742
0.07178
0.073425
0.07504
0.076038
0.076866
0.077006
0.077228
0.077003
0.076592
0.076495
0.076259
0.0764
0.07635
0.077111
0.078316
0.079378
0.080335
0.082206
0.084529
0.0868
0.089574
0.092208
0.094985
0.097714
0.099893
0.102
0.10369
0.10534
0.10611
0.10623
0.10607
0.10513
0.10384
0.10214
0.099621
0.096951
0.093922
0.090695
0.087271
0.083775
0.08089
0.078426
0.075483
0.07298
0.070701
0.068735
0.066909
0.065232
0.063816
0.062451
0.061403
0.060951
0.060404
0.060156
0.059906
0.059765
0.059789
0.059619
0.059558
0.059218
0.058366
0.057589
0.056614
0.055637
0.054818
0.053824
0.052811
0.052201
0.051631
0.051234
0.050845
0.050962
0.051474
0.052174
0.053243
0.054821
0.056313
0.057717
0.059219
0.060769
0.061761
0.06302
0.064366
0.065291
0.06635
0.06766
0.068708
0.069703
0.070853
0.071888
0.073127
0.074673
0.076187
0.07809
0.079488
0.081142
0.083212
0.084824
0.086762
0.08834
0.089623
0.090878
0.091615
0.092292
0.092485
0.092256
0.091801
0.090747
0.089571
0.088092
0.086164
0.084332
0.081878
0.080012
0.078228
0.07562
0.073346
0.071031
0.068819
0.067008
0.065249
0.064368
0.063303
0.062188
0.06182
0.061222
0.061461
0.061793
0.062795
0.064407
0.066147
0.068329
0.070886
0.073245
0.075353
0.077334
0.07935
0.080098
0.080244
0.080216
0.080033
0.078696
0.076571
0.073659
0.069627
0.065036
0.059666
0.05353
0.047049
0.040134
0.032838
0.025282
0.018357
0.01188
0.0058895
0.00079093
-0.0031272
-0.0060836
-0.0076815
-0.0076597
-0.0067603
-0.0041459
-0.00032757
0.0049241
0.011197
0.018107
0.026126
0.034632
0.042815
0.050918
0.058247
0.065242
0.071266
0.076261
0.079935
0.082334
0.084346
0.085231
0.085414
0.084673
0.082885
0.081006
0.078908
0.075682
0.07265
0.069614
0.066673
0.06392
0.061528
0.059875
0.058804
0.057798
0.057773
0.057652
0.058021
0.058905
0.059529
0.060529
0.061458
0.062179
0.062954
0.063369
0.063448
0.063183
0.062576
0.061889
0.060942
0.059735
0.058503
0.057217
0.056087
0.054942
0.054239
0.053677
0.053233
0.053072
0.05329
0.053173
0.052934
0.052735
0.052014
0.051824
0.051217
0.051099
0.051261
0.051666
0.052112
0.052868
0.053532
0.053982
0.05438
0.05465
0.054761
0.054941
0.055009
0.055548
0.055674
0.056013
0.055953
0.055924
0.055442
0.054444
0.052851
0.051007
0.048637
0.045823
0.043494
0.040091
0.036896
0.033903
0.030985
0.02853
0.026669
0.025304
0.024773
0.025113
0.026042
0.027656
0.029797
0.032907
0.036126
0.040007
0.043883
0.048357
0.053097
0.057586
0.06206
0.066312
0.070024
0.073021
0.0752
0.076309
0.075718
0.07415
0.071641
0.067714
0.06317
0.058307
0.05254
0.047303
0.041977
0.036859
0.032567
0.029208
0.026915
0.025179
0.024454
0.024781
0.025842
0.027314
0.029501
0.031845
0.034489
0.037424
0.040094
0.043078
0.045943
0.048038
0.049725
0.050826
0.051295
0.050991
0.04988
0.048051
0.045788
0.042731
0.039623
0.036387
0.032719
0.029371
0.026049
0.022847
0.020455
0.018301
0.016699
0.015949
0.015827
0.016179
0.017557
0.019165
0.021523
0.024305
0.027375
0.030985
0.03485
0.038534
0.042588
0.046705
0.050715
0.054184
0.057619
0.061142
0.064287
0.067236
0.070185
0.073116
0.076205
0.079075
0.081168
0.08338
0.084661
0.08533
0.085065
0.084059
0.08179
0.079442
0.075938
0.071762
0.067221
0.062514
0.057404
0.051944
0.046289
0.040283
0.034166
0.028092
0.022145
0.016114
0.010885
0.0059954
0.001718
-0.0016844
-0.0043901
-0.0063257
-0.0070889
-0.0072296
-0.0061733
-0.0040494
-0.00068701
0.0031473
0.007969
0.013368
0.01878
0.024202
0.029327
0.034175
0.038636
0.042796
0.046255
0.049374
0.051985
0.054286
0.056161
0.057721
0.058742
0.059376
0.059255
0.058769
0.057752
0.056404
0.054857
0.053076
0.051325
0.049759
0.048341
0.047159
0.046458
0.046322
0.046363
0.046994
0.047372
0.048248
0.049192
0.050011
0.051056
0.051948
0.052496
0.052878
0.053115
0.052942
0.05253
0.051741
0.050681
0.048937
0.046818
0.044497
0.041716
0.038439
0.034849
0.031178
0.027259
0.02359
0.019652
0.016222
0.012748
0.009273
0.006014
0.0028188
-3.95E-05
-0.0026778
-0.0052619
-0.0074343
-0.0093188
-0.010983
-0.011977
-0.01259
-0.012581
-0.012537
-0.01171
-0.010998
-0.009949
-0.0084058
-0.0068743
-0.0047067
-0.0019377
0.0011663
0.0046124
0.0087306
0.012662
0.016768
0.020865
0.024776
0.028199
0.031762
0.034859
0.037873
0.040022
0.041963
0.043008
0.043896
0.043836
0.04325
0.04204
0.040249
0.038459
0.035827
0.033013
0.029901
0.026599
0.023302
0.019937
0.017208
0.015135
0.013728
0.013263
0.013774
0.014796
0.016562
0.018338
0.020615
0.02297
0.025021
0.027081
0.028987
0.030701
0.032291
0.033815
0.035154
0.036152
0.037145
0.037589
0.037351
0.037468
0.036592
0.035566
0.034341
0.032934
0.032088
0.031614
0.03202
0.032358
0.0335
0.035124
0.036602
0.038691
0.041176
0.042994
0.045129
0.046767
0.048221
0.049665
0.050167
0.050072
0.049421
0.047863
0.044667
0.040324
0.034427
0.027082
0.017765
0.0068865
-0.0052267
-0.018826
-0.033204
-0.048495
-0.064492
-0.080629
-0.096836
-0.11249
-0.12715
-0.14038
-0.15192
-0.16032
-0.16596
-0.16805
-0.1661
-0.15968
-0.14875
-0.13361
-0.11457
-0.091378
-0.064778
-0.035807
-0.0037515
0.030881
0.067611
0.10656
0.14737
0.18988
0.23349
0.27715
0.3211
0.36419
0.4058
0.44493
0.4813
0.51401
0.54212
0.56536
0.58326
0.5955
0.60123
0.60165
0.59605
0.58505
0.56863
0.54723
0.52074
0.49005
0.45542
0.41718
0.37584
0.33219
0.28651
0.24009
0.19403
0.14865
0.10506
0.064813
0.027426
-0.0062685
-0.035929
-0.061115
-0.082197
-0.098752
-0.11116
-0.1197
-0.1243
-0.12581
-0.12462
-0.12047
-0.11443
-0.10688
-0.098224
-0.088744
-0.078908
-0.069352
-0.059667
-0.050244
-0.041697
-0.033672
-0.026528
-0.019819
-0.014214
-0.0089395
-0.004493
-0.00095397
0.0019804
0.003894
0.0053307
0.0057936
0.0053325
0.0046377
0.0030945
0.0015091
-0.00022986
-0.0024147
-0.0040165
-0.0060506
-0.0079802
-0.009551
-0.011119
-0.012782
-0.014429
-0.016141
-0.017715
-0.019421
-0.021324
-0.022611
-0.024207
-0.025993
-0.027193
-0.027562
-0.027982
-0.028417
-0.028503
-0.028781
-0.029221
-0.029849
-0.030758
-0.031768
-0.03269
-0.033412
-0.034057
-0.034751
-0.035357
-0.036074
-0.036821
-0.037718
-0.038895
-0.040508
-0.042043
-0.043774
-0.045442
-0.047026
-0.048391
-0.049296
-0.050692
-0.051514
-0.052462
-0.052753
-0.053265
-0.053565
-0.053292
-0.053081
-0.052268
-0.051121
-0.049303
-0.04697
-0.044095
-0.040799
-0.037263
-0.033949
-0.030318
-0.026856
-0.023534
-0.020556
-0.017961
-0.01546
-0.013294
-0.011334
-0.0097908
-0.0087404
-0.0080625
-0.0081459
-0.0084345
-0.0093052
-0.011045
-0.013006
-0.015474
-0.018557
-0.0217
-0.025234
-0.028739
-0.031933
-0.034809
-0.03806
-0.040907
-0.044214
-0.046979
-0.049758
-0.052187
-0.053962
-0.055758
-0.056408
-0.056598
-0.056255
-0.055641
-0.054681
-0.05324
-0.052071
-0.050848
-0.05053
-0.050334
-0.050924
-0.052282
-0.054247
-0.056816
-0.05979
-0.063194
-0.06704
-0.0708
-0.07479
-0.079192
-0.083305
-0.087745
-0.091994
-0.096113
-0.09993
-0.10366
-0.10685
-0.10957
-0.11193
-0.11366
-0.11475
-0.11498
-0.11457
-0.11337
-0.11194
-0.10994
-0.10757
-0.10502
-0.10215
-0.099057
-0.095856
-0.092664
-0.08916
-0.086216
-0.083335
-0.080723
-0.078734
-0.077493
-0.077153
-0.077193
-0.078441
-0.08059
-0.083436
-0.087615
-0.092125
-0.097742
-0.10393
-0.11088
-0.11806
-0.12518
-0.13215
-0.13922
-0.14596
-0.15211
-0.15737
-0.1622
-0.16625
-0.16957
-0.17192
-0.17321
-0.17365
-0.173
-0.17177
-0.16982
-0.16763
-0.16499
-0.16183
-0.15882
-0.15645
-0.1542
-0.15253
-0.15145
-0.15093
-0.15141
-0.15254
-0.15421
-0.15612
-0.15869
-0.16124
-0.16391
-0.16686
-0.16962
-0.17247
-0.1752
-0.1781
-0.18032
-0.18238
-0.18414
-0.18604
-0.1873
-0.18784
-0.18849
-0.18875
-0.18818
-0.18729
-0.18576
-0.18365
-0.18137
-0.17863
-0.17567
-0.17208
-0.16793
-0.16379
-0.15904
-0.15402
-0.14862
-0.14292
-0.13683
-0.13085
-0.12466
-0.11819
-0.11222
-0.10621
-0.10066
-0.095977
-0.091823
-0.088596
-0.086338
-0.084795
-0.084764
-0.085517
-0.086304
-0.087948
-0.089461
-0.091434
-0.092886
-0.094333
-0.095122
-0.095562
-0.095286
-0.094128
-0.091803
-0.088494
-0.084039
-0.07808
-0.070966
-0.06262
-0.053647
-0.04372
-0.033201
-0.022002
-0.010709
0.00047599
0.011635
0.0229
0.033749
0.043901
0.053596
0.062612
0.070733
0.078097
0.083873
0.089537
0.09437
0.098377
0.10141
0.10416
0.10646
0.10837
0.10998
0.11174
0.11346
0.11481
0.11712
0.11875
0.12079
0.12279
0.12492
0.12649
0.12829
0.12957
0.13071
0.13165
0.13237
0.13277
0.133
0.13361
0.13391
0.13428
0.13479
0.13584
0.13694
0.13822
0.13971
0.14123
0.14288
0.14474
0.14706
0.1486
0.15083
0.15255
0.1544
0.1561
0.15742
0.15879
0.15979
0.16035
0.16069
0.16102
0.16079
0.16013
0.15896
0.15731
0.15475
0.15207
0.14873
0.14456
0.14068
0.13674
0.1328
0.12919
0.12602
0.12382
0.1214
0.11962
0.11828
0.11681
0.11545
0.11386
0.11259
0.11134
0.11031
0.10957
0.10886
0.10821
0.10709
0.106
0.10523
0.10392
0.10277
0.10145
0.10015
0.099342
0.098042
0.097567
0.096798
0.096261
0.096183
0.096439
0.096441
0.096804
0.09771
0.098864
0.10011
0.10152
0.10379
0.10562
0.10824
0.11054
0.11323
0.11556
0.1181
0.1199
0.12136
0.12222
0.12232
0.1214
0.11971
0.11762
0.11489
0.11207
0.10892
0.10565
0.10244
0.099204
0.09582
0.092581
0.08949
0.086623
0.083917
0.081944
0.080516
0.079931
0.079868
0.079936
0.080993
0.082551
0.084321
0.086532
0.088623
0.090729
0.092321
0.09368
0.09415
0.094247
0.093666
0.092232
0.090477
0.088177
0.085775
0.082779
0.080085
0.077369
0.074104
0.071413
0.068859
0.066719
0.065057
0.064105
0.063717
0.063829
0.064716
0.066078
0.068705
0.071729
0.075013
0.078577
0.082085
0.08601
0.089535
0.092827
0.095309
0.097495
0.099097
0.099896
0.10044
0.10061
0.1002
0.09986
0.099268
0.098326
0.096613
0.095136
0.093457
0.091611
0.089624
0.087276
0.085007
0.082597
0.080329
0.078248
0.075639
0.073066
0.07013
0.067455
0.064155
0.060711
0.057548
0.054282
0.051488
0.049025
0.046907
0.045066
0.044464
0.043783
0.043748
0.044866
0.046479
0.04917
0.052666
0.056472
0.061039
0.066016
0.070649
0.075388
0.07947
0.082908
0.086383
0.088909
0.090511
0.091164
0.090833
0.089592
0.087713
0.08494
0.08153
0.078197
0.073433
0.068888
0.064149
0.058902
0.054095
0.049065
0.044992
0.0417
0.039117
0.037663
0.036699
0.036728
0.037578
0.039649
0.042161
0.045833
0.049976
0.054607
0.059555
0.064851
0.070052
0.075433
0.080304
0.084199
0.088648
0.091738
0.094706
0.096792
0.097716
0.098044
0.097491
0.09592
0.093647
0.090207
0.086205
0.081449
0.076985
0.071694
0.066093
0.061009
0.055803
0.050888
0.047025
0.043157
0.039989
0.037248
0.035313
0.033917
0.032921
0.033395
0.034101
0.035691
0.038515
0.041907
0.045797
0.049812
0.053713
0.057552
0.06067
0.063634
0.065925
0.067357
0.068364
0.06878
0.068782
0.068352
0.067342
0.066002
0.064396
0.062012
0.060036
0.05744
0.055042
0.052468
0.049891
0.047963
0.046428
0.045759
0.045634
0.046113
0.047515
0.04959
0.052023
0.054916
0.058443
0.061754
0.065979
0.069873
0.073571
0.077664
0.080788
0.083868
0.08668
0.088837
0.090294
0.090778
0.090451
0.089131
0.086901
0.084478
0.081299
0.078687
0.075333
0.072148
0.068478
0.065303
0.061977
0.059216
0.056305
0.054243
0.052262
0.050541
0.049696
0.048786
0.048029
0.047624
0.047287
0.046968
0.046547
0.046265
0.045707
0.045202
0.044829
0.044621
0.043526
0.042708
0.041917
0.040958
0.039781
0.038829
0.037637
0.036323
0.034702
0.033084
0.03203
0.030309
0.028797
0.027135
0.025806
0.024487
0.023181
0.022385
0.021513
0.021275
0.021434
0.022088
0.023141
0.025083
0.027701
0.030767
0.034488
0.038863
0.043852
0.048983
0.054399
0.06006
0.065644
0.071126
0.076311
0.080557
0.084834
0.088306
0.09068
0.092817
0.093582
0.093802
0.093425
0.092156
0.090043
0.087756
0.084882
0.08116
0.077183
0.072613
0.06767
0.062656
0.058168
0.053911
0.049854
0.046863
0.04399
0.041874
0.039982
0.038531
0.037215
0.036039
0.035317
0.034244
0.033346
0.032633
0.032034
0.031572
0.031462
0.031428
0.031912
0.032505
0.033729
0.035012
0.036734
0.038344
0.040151
0.041375
0.042755
0.043878
0.044776
0.045589
0.046247
0.046593
0.047466
0.048093
0.048802
0.049355
0.049908
0.05044
0.050878
0.05139
0.050932
0.051151
0.051302
0.051325
0.05171
0.052136
0.052806
0.054154
0.055324
0.056355
0.057368
0.058365
0.058836
0.059092
0.059016
0.058476
0.057465
0.056355
0.054575
0.052358
0.049851
0.047356
0.044818
0.042069
0.039847
0.037435
0.035393
0.033372
0.031114
0.029227
0.027253
0.025056
0.023402
0.021513
0.019813
0.019287
0.01888
0.019422
0.020525
0.022045
0.024684
0.02732
0.030332
0.033453
0.036932
0.040293
0.043455
0.046866
0.050021
0.052501
0.055405
0.05795
0.060686
0.062717
0.064747
0.066027
0.06746
0.068296
0.068876
0.06942
0.069524
0.069164
0.068577
0.067678
0.066031
0.064436
0.062277
0.059876
0.057358
0.054375
0.051316
0.047903
0.044673
0.041155
0.038026
0.034996
0.031693
0.028544
0.025498
0.022089
0.018845
0.015276
0.011774
0.0085438
0.0051552
0.0021974
0.00013557
-0.0018512
-0.0035807
-0.0042866
-0.0051303
-0.0051276
-0.0046574
-0.003968
-0.0034316
-0.0028917
-0.0024736
-0.0025467
-0.0029562
-0.0036873
-0.0052661
-0.0067782
-0.0081566
-0.0096277
-0.011009
-0.012113
-0.013144
-0.013649
-0.014468
-0.014605
-0.01393
-0.013439
-0.012034
-0.0097903
-0.0071476
-0.0034655
0.00042907
0.0053498
0.010391
0.016201
0.022493
0.027988
0.033916
0.039488
0.044694
0.049158
0.05264
0.05531
0.057079
0.057579
0.057344
0.055802
0.053549
0.05039
0.046647
0.042748
0.03869
0.034887
0.031665
0.02928
0.027266
0.026629
0.026123
0.026901
0.02801
0.029371
0.031516
0.033631
0.036032
0.038516
0.041386
0.044412
0.047273
0.049926
0.05249
0.05451
0.055781
0.056516
0.056869
0.056533
0.055795
0.054757
0.053444
0.052567
0.05149
0.050969
0.05054
0.050247
0.050145
0.049548
0.048571
0.047454
0.04556
0.042942
0.039335
0.034685
0.028725
0.021251
0.012246
0.0015868
-0.010355
-0.024078
-0.038996
-0.055114
-0.071757
-0.088362
-0.10464
-0.11983
-0.13324
-0.14423
-0.15266
-0.15769
-0.1588
-0.15605
-0.14846
-0.13649
-0.12003
-0.099413
-0.074903
-0.046738
-0.016026
0.017116
0.052485
0.08905
0.12715
0.16649
0.20654
0.24706
0.28764
0.32763
0.36648
0.40395
0.43861
0.47064
0.49806
0.52111
0.53893
0.55112
0.55808
0.55941
0.55585
0.54745
0.53421
0.51652
0.49456
0.46868
0.43886
0.40543
0.36899
0.32992
0.28916
0.24731
0.2046
0.16286
0.12236
0.084446
0.049612
0.018324
-0.0089454
-0.031625
-0.050362
-0.064607
-0.07464
-0.080919
-0.083895
-0.083806
-0.081411
-0.077053
-0.07104
-0.06433
-0.056778
-0.049106
-0.041712
-0.034799
-0.028783
-0.02312
-0.018663
-0.014999
-0.012038
-0.0099432
-0.0084753
-0.0070648
-0.0061495
-0.0051175
-0.0043981
-0.0037454
-0.0034425
-0.0034242
-0.0034996
-0.0036142
-0.0042514
-0.0051305
-0.0062847
-0.0074129
-0.0087703
-0.010705
-0.012752
-0.015001
-0.017723
-0.021041
-0.024446
-0.028286
-0.032266
-0.036107
-0.039921
-0.043188
-0.045945
-0.048577
-0.050085
-0.050698
-0.050738
-0.049945
-0.048856
-0.047404
-0.045285
-0.042946
-0.040633
-0.03766
-0.034782
-0.031862
-0.029028
-0.026534
-0.023826
-0.021845
-0.020081
-0.018932
-0.01841
-0.01823
-0.018241
-0.018894
-0.019905
-0.020575
-0.021682
-0.022721
-0.02355
-0.024092
-0.02451
-0.024722
-0.024464
-0.023671
-0.022734
-0.021234
-0.019403
-0.017184
-0.015143
-0.012786
-0.010609
-0.0085437
-0.0062802
-0.0042018
-0.0025132
-0.00098281
3.52E-05
0.00067269
0.0009135
0.0005331
-0.00051534
-0.0021471
-0.0046296
-0.0077985
-0.011649
-0.015965
-0.020472
-0.02578
-0.031372
-0.037148
-0.04324
-0.049512
-0.055446
-0.061486
-0.067162
-0.072574
-0.077382
-0.081487
-0.08495
-0.087629
-0.089549
-0.090602
-0.091014
-0.090916
-0.090214
-0.088649
-0.086519
-0.084083
-0.080577
-0.076485
-0.07256
-0.068146
-0.063395
-0.058956
-0.054401
-0.050174
-0.046008
-0.04265
-0.03937
-0.036435
-0.033847
-0.031533
-0.029656
-0.027799
-0.026653
-0.025493
-0.024937
-0.024632
-0.024834
-0.025222
-0.025426
-0.025959
-0.026611
-0.027549
-0.028591
-0.029804
-0.031344
-0.032818
-0.034939
-0.036748
-0.039021
-0.041314
-0.044137
-0.046858
-0.049764
-0.052759
-0.055687
-0.058885
-0.062036
-0.064791
-0.06746
-0.070259
-0.072573
-0.075121
-0.077449
-0.07956
-0.081682
-0.083821
-0.085295
-0.087143
-0.089126
-0.090964
-0.09364
-0.095708
-0.098815
-0.10216
-0.10576
-0.10926
-0.1135
-0.1181
-0.12268
-0.12748
-0.1324
-0.13724
-0.14236
-0.14724
-0.15208
-0.1566
-0.16015
-0.16359
-0.16609
-0.16775
-0.1688
-0.16863
-0.16798
-0.16622
-0.16399
-0.16064
-0.15712
-0.15291
-0.14851
-0.1436
-0.13865
-0.13348
-0.1284
-0.12355
-0.11826
-0.11381
-0.10897
-0.10481
-0.10148
-0.098719
-0.096763
-0.09559
-0.095284
-0.095494
-0.09677
-0.098654
-0.10074
-0.10321
-0.10602
-0.10871
-0.11124
-0.11421
-0.11684
-0.11941
-0.12144
-0.12358
-0.12523
-0.12613
-0.12713
-0.12766
-0.12792
-0.12783
-0.12698
-0.12607
-0.12464
-0.12292
-0.12075
-0.11819
-0.11514
-0.11156
-0.10729
-0.10241
-0.096584
-0.089831
-0.082769
-0.074646
-0.066358
-0.057507
-0.048308
-0.038729
-0.028696
-0.019103
-0.0092177
0.0001588
0.0091399
0.017999
0.026334
0.033835
0.04061
0.046417
0.051232
0.05507
0.058229
0.060579
0.061801
0.06274
0.06298
0.063048
0.062539
0.061989
0.061846
0.061885
0.062218
0.063423
0.065007
0.067021
0.069707
0.072861
0.076672
0.080062
0.083724
0.088345
0.092843
0.096921
0.10072
0.10466
0.1083
0.11167
0.11474
0.11754
0.12065
0.12349
0.12621
0.12885
0.13061
0.13229
0.13351
0.13486
0.1359
0.13717
0.1383
0.13938
0.14062
0.14193
0.1435
0.14526
0.14761
0.14984
0.15246
0.15462
0.15717
0.15961
0.16191
0.16377
0.166
0.16777
0.16933
0.17103
0.17252
0.17364
0.17426
0.17476
0.17477
0.17437
0.17326
0.17104
0.16821
0.16467
0.16058
0.15591
0.15082
0.14539
0.13998
0.13393
0.12819
0.12251
0.11724
0.11218
0.10781
0.10363
0.099822
0.096376
0.093359
0.09069
0.088582
0.086889
0.085582
0.084323
0.083925
0.083553
0.083436
0.084227
0.085414
0.087257
0.089325
0.091994
0.095078
0.098795
0.10282
0.10677
0.11062
0.11456
0.11796
0.12171
0.12528
0.12883
0.13234
0.13539
0.13816
0.14043
0.14228
0.14302
0.1432
0.14249
0.14049
0.13821
0.13477
0.1311
0.12699
0.12288
0.11842
0.11436
0.11061
0.10719
0.10405
0.10138
0.099201
0.097361
0.095771
0.094374
0.093743
0.093289
0.093072
0.093125
0.093293
0.093407
0.093362
0.093002
0.092039
0.090386
0.088247
0.084861
0.080845
0.076709
0.071257
0.065706
0.060019
0.054669
0.049946
0.046055
0.042946
0.041036
0.040108
0.04006
0.041198
0.043021
0.045819
0.050052
0.054676
0.060175
0.066194
0.072615
0.079115
0.085406
0.091917
0.097827
0.1029
0.10687
0.11001
0.11186
0.11266
0.11204
0.11057
0.10808
0.1049
0.1009
0.096789
0.092215
0.08753
0.082973
0.079585
0.076364
0.073306
0.071527
0.070444
0.070253
0.071087
0.072054
0.074033
0.076563
0.079183
0.081544
0.084092
0.086507
0.089171
0.090867
0.092193
0.093469
0.093432
0.092938
0.091522
0.089091
0.086142
0.082626
0.079284
0.075093
0.070556
0.066158
0.061871
0.058034
0.054754
0.052002
0.050124
0.049278
0.049297
0.050169
0.051576
0.053706
0.056333
0.059506
0.06276
0.066184
0.069273
0.072432
0.075323
0.077765
0.079614
0.080472
0.081306
0.081691
0.081627
0.080918
0.080096
0.079559
0.078046
0.076668
0.075378
0.074531
0.074066
0.073951
0.074396
0.075359
0.076814
0.078766
0.08046
0.082559
0.085353
0.087355
0.08941
0.090798
0.091603
0.091791
0.091248
0.090248
0.087982
0.084837
0.080792
0.076665
0.071097
0.064964
0.058687
0.052442
0.046271
0.040152
0.034529
0.029127
0.025015
0.021396
0.018719
0.016914
0.016482
0.01683
0.018036
0.020064
0.023099
0.0267
0.030593
0.034972
0.039874
0.045013
0.050203
0.055499
0.060544
0.065517
0.070075
0.074154
0.07819
0.081208
0.084142
0.087079
0.089381
0.091081
0.092533
0.093325
0.093444
0.092873
0.091561
0.090178
0.088092
0.085641
0.083039
0.080374
0.078215
0.075568
0.073324
0.07082
0.069021
0.066588
0.064671
0.062638
0.060824
0.059191
0.057751
0.056214
0.054748
0.053095
0.051626
0.05074
0.049774
0.048904
0.048471
0.047791
0.047248
0.046572
0.045863
0.04571
0.045049
0.045018
0.045119
0.044837
0.045098
0.044558
0.044536
0.044365
0.044207
0.044609
0.045098
0.045978
0.046902
0.04856
0.050436
0.052249
0.054843
0.056916
0.059165
0.061243
0.063268
0.065174
0.066799
0.068594
0.069997
0.071065
0.072267
0.073649
0.074213
0.075101
0.07578
0.076262
0.07626
0.075837
0.075118
0.073213
0.070424
0.067563
0.06375
0.059758
0.056055
0.052082
0.048012
0.044322
0.040882
0.03754
0.034187
0.031629
0.029592
0.027507
0.026244
0.025313
0.024714
0.024245
0.024343
0.024624
0.025326
0.026356
0.028191
0.03027
0.032939
0.035881
0.038683
0.041239
0.044114
0.046596
0.049179
0.051524
0.053583
0.055891
0.057542
0.058821
0.05976
0.060613
0.060707
0.060617
0.059916
0.059218
0.058101
0.056801
0.055421
0.053764
0.051916
0.050052
0.048242
0.045884
0.043911
0.042028
0.040291
0.039049
0.037723
0.036989
0.036431
0.036338
0.036746
0.037082
0.03828
0.039247
0.040116
0.041197
0.041966
0.042756
0.043935
0.045432
0.046836
0.048809
0.050246
0.051988
0.053494
0.05502
0.056416
0.057809
0.059184
0.060328
0.061415
0.062464
0.062966
0.063581
0.063394
0.062819
0.061689
0.059646
0.057193
0.053959
0.050388
0.046907
0.04296
0.038975
0.035124
0.031628
0.028369
0.025446
0.02295
0.020982
0.019066
0.017945
0.017275
0.016889
0.017728
0.01907
0.020967
0.023667
0.026845
0.029647
0.033026
0.03591
0.038614
0.040795
0.042343
0.043037
0.043345
0.043327
0.042641
0.041797
0.040423
0.038936
0.037277
0.036009
0.034509
0.033758
0.033094
0.033186
0.033588
0.034787
0.036185
0.038193
0.040573
0.043457
0.046409
0.049614
0.053093
0.056145
0.05907
0.061634
0.064143
0.065559
0.066748
0.067209
0.067291
0.066392
0.064734
0.062301
0.058977
0.054674
0.049275
0.043288
0.03692
0.03012
0.023447
0.01653
0.010169
0.0039879
-0.00155
-0.0068031
-0.011359
-0.015715
-0.019256
-0.022033
-0.023935
-0.025322
-0.025995
-0.025949
-0.025611
-0.024541
-0.023141
-0.021331
-0.019071
-0.016627
-0.014114
-0.011706
-0.0091359
-0.0070241
-0.0048825
-0.0036327
-0.002394
-0.001158
-0.0006418
0.00019039
0.00091636
0.0020257
0.0029775
0.0043366
0.0062548
0.0082235
0.010755
0.013646
0.017023
0.020448
0.024226
0.028459
0.032663
0.03684
0.041062
0.044963
0.048392
0.051281
0.053577
0.055131
0.055764
0.055705
0.055057
0.053677
0.051926
0.049818
0.047595
0.045267
0.042465
0.040205
0.037521
0.034909
0.03235
0.03007
0.027897
0.026653
0.025699
0.025344
0.025747
0.026584
0.027777
0.029756
0.031796
0.033837
0.036116
0.038149
0.040414
0.041922
0.043169
0.044491
0.045018
0.04503
0.044978
0.044399
0.043096
0.041839
0.040638
0.038559
0.036642
0.034591
0.03161
0.02787
0.023506
0.017897
0.011831
0.0050332
-0.0022648
-0.010269
-0.018895
-0.027164
-0.036142
-0.045307
-0.054636
-0.064501
-0.073988
-0.083353
-0.091473
-0.098846
-0.10435
-0.10794
-0.10943
-0.1078
-0.10344
-0.095203
-0.084131
-0.069874
-0.052559
-0.032914
-0.01146
0.012505
0.038077
0.06535
0.093963
0.1249
0.15653
0.18935
0.22283
0.25656
0.29004
0.32304
0.35406
0.38386
0.41126
0.43605
0.45736
0.47448
0.48765
0.49601
0.49957
0.49861
0.4925
0.48186
0.46676
0.44726
0.42363
0.39652
0.36583
0.33225
0.29591
0.25702
0.21673
0.17571
0.13513
0.095575
0.058652
0.024215
-0.0073657
-0.034618
-0.057879
-0.076858
-0.09107
-0.10102
-0.10713
-0.10956
-0.10824
-0.10418
-0.097698
-0.089361
-0.079925
-0.069491
-0.058733
-0.048537
-0.038973
-0.030397
-0.02314
-0.017162
-0.012581
-0.0094125
-0.0076044
-0.0066411
-0.0066303
-0.0074358
-0.0083516
-0.0096125
-0.011396
-0.012875
-0.014325
-0.015773
-0.016925
-0.017456
-0.017871
-0.017952
-0.017819
-0.017209
-0.016496
-0.01598
-0.01542
-0.01487
-0.014733
-0.015271
-0.015992
-0.01738
-0.018968
-0.021061
-0.022886
-0.025281
-0.028239
-0.030834
-0.033313
-0.035965
-0.038046
-0.039999
-0.04136
-0.041979
-0.042263
-0.041456
-0.040123
-0.038351
-0.036016
-0.032675
-0.029329
-0.024899
-0.020337
-0.015114
-0.010117
-0.0048883
-1.27E-05
0.0040824
0.0077637
0.01039
0.012784
0.013718
0.014405
0.013741
0.012578
0.01101
0.0086843
0.0055133
0.001977
-0.0023881
-0.0075125
-0.012622
-0.018422
-0.024312
-0.030097
-0.035556
-0.041034
-0.045384
-0.049196
-0.052303
-0.054456
-0.056116
-0.057566
-0.058163
-0.05922
-0.059551
-0.060328
-0.061299
-0.062033
-0.063049
-0.06348
-0.064373
-0.064793
-0.065037
-0.064946
-0.06448
-0.063954
-0.062986
-0.062551
-0.061749
-0.060909
-0.060109
-0.05891
-0.057455
-0.055667
-0.053135
-0.050354
-0.04719
-0.043955
-0.040323
-0.037102
-0.03358
-0.030726
-0.028183
-0.025907
-0.0241
-0.02265
-0.02198
-0.021884
-0.022554
-0.02365
-0.025242
-0.027283
-0.029407
-0.031986
-0.034826
-0.037528
-0.040241
-0.043182
-0.046281
-0.04954
-0.052842
-0.05645
-0.060241
-0.064035
-0.067937
-0.071788
-0.075677
-0.078934
-0.081941
-0.084587
-0.0866
-0.088162
-0.089657
-0.090881
-0.091736
-0.092649
-0.093455
-0.094443
-0.09547
-0.096528
-0.097265
-0.098366
-0.099145
-0.099837
-0.099923
-0.10024
-0.10089
-0.10138
-0.10224
-0.10331
-0.1045
-0.106
-0.10826
-0.11048
-0.11337
-0.1167
-0.11997
-0.12374
-0.12749
-0.13109
-0.13467
-0.13839
-0.14124
-0.14442
-0.14692
-0.149
-0.15074
-0.15213
-0.15363
-0.15452
-0.15549
-0.15625
-0.15643
-0.15657
-0.15633
-0.1558
-0.15481
-0.15368
-0.15186
-0.15018
-0.14819
-0.14581
-0.14355
-0.14185
-0.13998
-0.13843
-0.1372
-0.13653
-0.13665
-0.13681
-0.13775
-0.13907
-0.14065
-0.14303
-0.14581
-0.14852
-0.1518
-0.1552
-0.15883
-0.16268
-0.16634
-0.17038
-0.17438
-0.17834
-0.18224
-0.1856
-0.18845
-0.19105
-0.19302
-0.19372
-0.19422
-0.19411
-0.1935
-0.1924
-0.19047
-0.18858
-0.186
-0.18336
-0.17989
-0.17644
-0.17236
-0.16789
-0.16337
-0.15837
-0.15327
-0.14795
-0.14205
-0.13587
-0.12968
-0.12316
-0.11574
-0.10824
-0.10091
-0.093063
-0.08475
-0.076227
-0.067882
-0.058983
-0.05034
-0.04191
-0.033255
-0.024735
-0.016085
-0.0078456
-4.77E-05
0.0077688
0.014998
0.021953
0.028261
0.034035
0.03936
0.044379
0.048947
0.053331
0.057533
0.061488
0.06537
0.069327
0.072887
0.076825
0.080021
0.0829
0.086093
0.089381
0.092444
0.095499
0.099007
0.10236
0.10559
0.10909
0.11281
0.11679
0.12091
0.12498
0.12915
0.13318
0.13713
0.14099
0.14486
0.14844
0.15164
0.1549
0.15796
0.16122
0.16413
0.16726
0.17028
0.17294
0.17593
0.17841
0.18042
0.18213
0.18285
0.183
0.18222
0.18108
0.17873
0.17559
0.17153
0.16646
0.16074
0.15438
0.14715
0.1399
0.13225
0.12485
0.1178
0.11146
0.10546
0.1006
0.096432
0.093013
0.090803
0.089656
0.089556
0.090304
0.092263
0.095437
0.098856
0.10306
0.10776
0.11239
0.11678
0.12119
0.1251
0.12824
0.13092
0.1326
0.13349
0.13384
0.13312
0.13203
0.13042
0.12839
0.12574
0.12235
0.11944
0.11621
0.1132
0.11041
0.10807
0.106
0.1044
0.10364
0.1031
0.10253
0.10324
0.10392
0.10482
0.10656
0.10874
0.11166
0.11471
0.11804
0.12139
0.12431
0.1273
0.12983
0.13138
0.13276
0.13349
0.13336
0.13292
0.13185
0.13009
0.12777
0.12509
0.12179
0.11804
0.11384
0.10962
0.10516
0.10011
0.095243
0.090054
0.085269
0.080657
0.076897
0.072374
0.068596
0.065502
0.062855
0.060471
0.058782
0.057527
0.056858
0.056601
0.056807
0.057231
0.058084
0.05901
0.060076
0.061376
0.06267
0.064176
0.065677
0.067257
0.069156
0.071171
0.073257
0.075323
0.077391
0.079388
0.080262
0.081718
0.08279
0.083343
0.083467
0.082948
0.082043
0.081071
0.080072
0.079245
0.078444
0.077129
0.076092
0.075393
0.074783
0.074338
0.074086
0.073974
0.074154
0.074477
0.075158
0.076131
0.077473
0.078973
0.080058
0.081132
0.082833
0.08424
0.0854
0.086468
0.08786
0.088715
0.089248
0.089848
0.090387
0.090903
0.092184
0.093555
0.094673
0.095971
0.097595
0.099201
0.10029
0.10124
0.10186
0.10215
0.10187
0.10116
0.10015
0.098699
0.096536
0.09426
0.091261
0.087479
0.083044
0.077932
0.071743
0.06468
0.056997
0.049213
0.041666
0.034376
0.028033
0.022421
0.018285
0.014939
0.013205
0.012635
0.013329
0.015361
0.018391
0.022458
0.027256
0.032489
0.038432
0.045064
0.051301
0.057753
0.064483
0.070714
0.0768
0.082146
0.086953
0.091468
0.094968
0.097904
0.099818
0.1004
0.10035
0.099627
0.097961
0.095696
0.092621
0.089274
0.085409
0.08126
0.077874
0.073757
0.070248
0.066574
0.063838
0.060826
0.058239
0.055762
0.052951
0.049929
0.046744
0.043267
0.040265
0.037505
0.034993
0.033016
0.031346
0.030038
0.029112
0.028886
0.028792
0.029254
0.030139
0.03099
0.032211
0.03353
0.035034
0.036727
0.038289
0.040491
0.042403
0.044974
0.047773
0.05044
0.053499
0.056487
0.059397
0.062065
0.064443
0.066831
0.068425
0.069989
0.070872
0.07184
0.072625
0.073302
0.074082
0.07461
0.07519
0.075656
0.076119
0.076715
0.076961
0.077186
0.077408
0.077403
0.077186
0.07665
0.076086
0.075071
0.073696
0.072614
0.070734
0.068764
0.066601
0.064498
0.061705
0.059038
0.056028
0.05289
0.049923
0.04685
0.044098
0.041484
0.039426
0.037671
0.036393
0.035515
0.035292
0.035433
0.036043
0.037143
0.038278
0.040074
0.041815
0.043444
0.045145
0.046765
0.048397
0.050245
0.052128
0.053784
0.055341
0.056896
0.058528
0.059904
0.060813
0.061518
0.061805
0.061997
0.061971
0.061652
0.061013
0.059962
0.058373
0.056823
0.054963
0.052623
0.050321
0.047907
0.045549
0.042989
0.040373
0.037784
0.035209
0.032729
0.030823
0.02858
0.02752
0.026967
0.02715
0.02774
0.029261
0.030853
0.032776
0.035311
0.038288
0.041445
0.044884
0.048428
0.05187
0.055156
0.058391
0.061197
0.063025
0.064748
0.065603
0.065704
0.065281
0.064335
0.062913
0.061139
0.059332
0.057484
0.055778
0.054459
0.05312
0.052372
0.051602
0.051156
0.050686
0.050304
0.049894
0.049521
0.049133
0.04892
0.04852
0.04838
0.047947
0.047489
0.046603
0.045829
0.045007
0.04391
0.042913
0.041879
0.041088
0.040206
0.039412
0.03846
0.03787
0.037376
0.037196
0.037067
0.037374
0.0381
0.039223
0.040881
0.042397
0.044343
0.046674
0.048982
0.051274
0.053361
0.055061
0.056643
0.057281
0.057433
0.056923
0.056292
0.054998
0.053512
0.051876
0.050063
0.048295
0.046403
0.044679
0.043273
0.041905
0.040599
0.039338
0.038074
0.037288
0.036692
0.036295
0.035954
0.036205
0.037002
0.037694
0.038956
0.040571
0.042285
0.044151
0.046092
0.04779
0.049545
0.05101
0.052311
0.052695
0.052422
0.05173
0.0504
0.048757
0.046801
0.044739
0.042197
0.039901
0.037443
0.035026
0.032253
0.030133
0.027865
0.025996
0.024307
0.022657
0.021265
0.020624
0.020432
0.020771
0.022051
0.023738
0.025988
0.028634
0.031816
0.03541
0.03893
0.042752
0.046309
0.049517
0.052786
0.055306
0.057386
0.058941
0.059984
0.060435
0.060691
0.060161
0.059372
0.05792
0.056422
0.054539
0.052167
0.049695
0.04695
0.044226
0.041527
0.038607
0.035881
0.032855
0.030219
0.027437
0.025005
0.022438
0.020839
0.019357
0.018529
0.018167
0.018121
0.01846
0.019351
0.020064
0.021602
0.023108
0.024753
0.026364
0.027638
0.029068
0.030094
0.031345
0.032257
0.032799
0.033469
0.034592
0.035089
0.035686
0.036064
0.036345
0.036709
0.037057
0.036989
0.036689
0.036513
0.036318
0.036135
0.036117
0.036318
0.03692
0.038126
0.039839
0.041681
0.043515
0.045388
0.047163
0.048863
0.050258
0.051288
0.052233
0.052921
0.053463
0.053495
0.053384
0.052853
0.052349
0.051332
0.050363
0.049428
0.048319
0.047142
0.046153
0.04521
0.044338
0.043327
0.042355
0.041323
0.040324
0.039539
0.038355
0.037739
0.037011
0.036074
0.03498
0.033765
0.032056
0.03025
0.028514
0.026671
0.024814
0.022567
0.020721
0.018825
0.017369
0.016395
0.015915
0.015578
0.015624
0.016209
0.017188
0.018212
0.020205
0.022903
0.026598
0.030879
0.035642
0.04097
0.046072
0.051502
0.056119
0.060773
0.065206
0.06866
0.072383
0.075183
0.077655
0.079519
0.080381
0.080199
0.079826
0.078579
0.075885
0.072862
0.069032
0.064727
0.059623
0.054041
0.048533
0.042958
0.037914
0.033772
0.030398
0.02804
0.02665
0.026494
0.027296
0.028721
0.030639
0.033076
0.035597
0.038223
0.040562
0.042528
0.044187
0.045424
0.045715
0.045475
0.045121
0.044843
0.043858
0.042919
0.041543
0.039677
0.037079
0.034218
0.030533
0.026695
0.022367
0.01804
0.013471
0.0093696
0.0052039
0.0018224
-0.0013276
-0.0038009
-0.0061845
-0.0082415
-0.009648
-0.011015
-0.012387
-0.013528
-0.014243
-0.01548
-0.016206
-0.016629
-0.016736
-0.016358
-0.015494
-0.013118
-0.010142
-0.0058833
-0.00069872
0.0053989
0.012032
0.019205
0.026596
0.034053
0.0414
0.048479
0.054821
0.060405
0.064419
0.06772
0.069413
0.069759
0.069225
0.067653
0.065557
0.062132
0.058712
0.05428
0.049334
0.044079
0.039427
0.034934
0.031218
0.028864
0.027924
0.028363
0.030228
0.033105
0.037161
0.042366
0.047932
0.053716
0.059945
0.066333
0.072055
0.07758
0.08158
0.085378
0.08814
0.089251
0.088869
0.086561
0.082401
0.076674
0.068643
0.059028
0.048461
0.037365
0.026187
0.015197
0.0049395
-0.0042094
-0.012349
-0.019341
-0.024411
-0.027534
-0.028582
-0.026815
-0.022437
-0.015092
-0.0048369
0.0075757
0.022002
0.03769
0.054147
0.070713
0.08627
0.10137
0.11469
0.12616
0.13475
0.14039
0.14296
0.14185
0.13771
0.13046
0.12
0.10689
0.091508
0.074537
0.055378
0.03479
0.014011
-0.0068309
-0.026847
-0.045647
-0.062739
-0.07739
-0.089393
-0.098384
-0.1041
-0.10686
-0.10681
-0.10396
-0.098737
-0.091211
-0.082317
-0.072351
-0.061329
-0.050165
-0.039068
-0.028629
-0.019314
-0.010896
-0.0040026
0.0012201
0.0048049
0.0067523
0.0071998
0.0063015
0.0047422
0.0023811
-0.00019416
-0.0027636
-0.0056992
-0.0081008
-0.0097466
-0.011081
-0.011841
-0.012063
-0.011416
-0.010208
-0.0082425
-0.0058121
-0.002503
0.0011411
0.0054599
0.010061
0.014535
0.019343
0.023518
0.02756
0.030942
0.03416
0.03638
0.03848
0.040296
0.041955
0.043305
0.044666
0.046371
0.048466
0.051263
0.054928
0.060049
0.065868
0.072814
0.080029
0.088126
0.096817
0.10554
0.11419
0.1221
0.12896
0.13468
0.13847
0.14025
0.13986
0.13726
0.1322
0.12552
0.1166
0.10626
0.094051
0.081844
0.068664
0.054873
0.040817
0.026973
0.013359
0.00023234
-0.01181
-0.023748
-0.035159
-0.046181
-0.056221
-0.066295
-0.075617
-0.084357
-0.093109
-0.10136
-0.10958
-0.11776
-0.12619
-0.13435
-0.14231
-0.14956
-0.15568
-0.16077
-0.16402
-0.16426
-0.16198
-0.15607
-0.146
-0.1318
-0.11394
-0.092873
-0.067955
-0.040145
-0.0095715
0.023614
0.059492
0.096653
0.13565
0.17559
0.21606
0.25649
0.29632
0.33419
0.37017
0.40355
0.43354
0.45938
0.4807
0.4974
0.50897
0.51505
0.51542
0.51046
0.49985
0.48427
0.46446
0.44004
0.4115
0.38003
0.34581
0.30945
0.27136
0.23266
0.19346
0.15541
0.11839
0.083464
0.05133
0.021695
-0.0042933
-0.026937
-0.045366
-0.059442
-0.069798
-0.076252
-0.079284
-0.07913
-0.076052
-0.071037
-0.064349
-0.056364
-0.048033
-0.039695
-0.031594
-0.024269
-0.01743
-0.011527
-0.0060313
-0.0023622
0.00083402
0.0028735
0.0042573
0.0050026
0.0047801
0.0044974
0.0033734
0.0028894
0.0022681
0.0020374
0.00214
0.0024112
0.0026486
0.0025012
0.0018939
0.00088507
-0.00068668
-0.0025274
-0.0046508
-0.0070588
-0.0091774
-0.011414
-0.013805
-0.016083
-0.018356
-0.020983
-0.02332
-0.026026
-0.029151
-0.032318
-0.03582
-0.039504
-0.043118
-0.046211
-0.049254
-0.051816
-0.053556
-0.055245
-0.056427
-0.057259
-0.057439
-0.05707
-0.056582
-0.055395
-0.05372
-0.051802
-0.049518
-0.046988
-0.04383
-0.040556
-0.036514
-0.03209
-0.027204
-0.022495
-0.017246
-0.012374
-0.0079444
-0.0034721
0.00056785
0.0043722
0.0079361
0.011108
0.013989
0.016545
0.01848
0.020064
0.020684
0.020328
0.019078
0.017167
0.014339
0.010712
0.0071332
0.0028326
-0.0017552
-0.006259
-0.010451
-0.014683
-0.018401
-0.021818
-0.024874
-0.027497
-0.029942
-0.032089
-0.033865
-0.035707
-0.036391
-0.036777
-0.036484
-0.035746
-0.034575
-0.033452
-0.032449
-0.031616
-0.031187
-0.030958
-0.031576
-0.032357
-0.033605
-0.03565
-0.037899
-0.040606
-0.043596
-0.046984
-0.050055
-0.053503
-0.056899
-0.059862
-0.063104
-0.066092
-0.068875
-0.071284
-0.073512
-0.075656
-0.077027
-0.078128
-0.078912
-0.079016
-0.078471
-0.077434
-0.076189
-0.07428
-0.0719
-0.06921
-0.066359
-0.0633
-0.059814
-0.056543
-0.052794
-0.049301
-0.04545
-0.041584
-0.037738
-0.034312
-0.03155
-0.02907
-0.027539
-0.026679
-0.027306
-0.028534
-0.030988
-0.034794
-0.039404
-0.044562
-0.050469
-0.056475
-0.062519
-0.068716
-0.074383
-0.079545
-0.084554
-0.088859
-0.09267
-0.096028
-0.098828
-0.1009
-0.10302
-0.10448
-0.1055
-0.10654
-0.10694
-0.10751
-0.10784
-0.10833
-0.10922
-0.11029
-0.11239
-0.11467
-0.1178
-0.12151
-0.126
-0.13087
-0.13574
-0.14094
-0.14608
-0.15121
-0.15598
-0.16037
-0.16504
-0.16917
-0.17285
-0.17626
-0.1791
-0.18155
-0.18282
-0.18358
-0.18396
-0.1835
-0.18266
-0.18114
-0.17941
-0.17752
-0.1753
-0.17329
-0.17117
-0.16917
-0.16734
-0.16555
-0.16412
-0.16287
-0.1611
-0.15965
-0.15822
-0.15646
-0.15473
-0.15309
-0.15168
-0.15035
-0.14954
-0.14926
-0.14924
-0.14922
-0.14963
-0.14976
-0.14989
-0.14992
-0.14981
-0.14938
-0.14925
-0.14905
-0.14892
-0.14907
-0.1491
-0.14905
-0.14907
-0.1489
-0.14825
-0.14745
-0.14621
-0.14466
-0.1427
-0.1405
-0.13818
-0.13509
-0.13159
-0.12768
-0.12302
-0.11775
-0.11186
-0.10497
-0.097665
-0.089703
-0.081979
-0.073745
-0.065874
-0.057861
-0.049959
-0.042655
-0.035761
-0.029082
-0.022628
-0.016846
-0.011426
-0.0064192
-0.0018164
0.0022068
0.0062597
0.0096498
0.013017
0.016602
0.019638
0.022903
0.025768
0.028542
0.031635
0.034799
0.038577
0.042397
0.047055
0.051892
0.057068
0.062803
0.068606
0.074694
0.080304
0.086101
0.091765
0.09729
0.10246
0.1071
0.11209
0.11663
0.12068
0.12429
0.12714
0.12986
0.13176
0.1333
0.13438
0.13508
0.13501
0.13519
0.13489
0.13431
0.13371
0.13298
0.1322
0.13121
0.13005
0.12885
0.12751
0.1264
0.12507
0.12387
0.1229
0.12168
0.12091
0.12032
0.11946
0.11907
0.11836
0.11754
0.11636
0.11557
0.11451
0.11382
0.11283
0.1124
0.11203
0.11235
0.11336
0.11491
0.11693
0.11936
0.1223
0.12527
0.12832
0.13112
0.13383
0.13631
0.13888
0.14078
0.14315
0.14476
0.14607
0.14703
0.14735
0.14667
0.14556
0.14372
0.14132
0.13858
0.13512
0.13091
0.12649
0.12218
0.11773
0.11333
0.10913
0.10548
0.10201
0.09881
0.095905
0.093095
0.090713
0.088784
0.086611
0.085104
0.083674
0.082462
0.081893
0.081492
0.081445
0.081754
0.082146
0.082617
0.083134
0.083642
0.083838
0.083862
0.083595
0.083227
0.082267
0.081555
0.080909
0.080142
0.079727
0.078721
0.078014
0.076944
0.076025
0.075683
0.074856
0.074334
0.073674
0.07289
0.072351
0.071947
0.071926
0.0721
0.072931
0.074095
0.075723
0.077813
0.079684
0.081496
0.083851
0.085899
0.087893
0.089327
0.090672
0.092031
0.092898
0.093611
0.094316
0.094507
0.094667
0.094591
0.094223
0.093643
0.092739
0.091273
0.089968
0.088347
0.086482
0.08479
0.083529
0.082397
0.081678
0.08161
0.081699
0.082408
0.083382
0.084848
0.086356
0.088245
0.090507
0.09301
0.095273
0.097645
0.099705
0.10156
0.10344
0.10437
0.10544
0.10585
0.10533
0.10416
0.10169
0.098164
0.093356
0.087617
0.08095
0.073877
0.065512
0.057302
0.048624
0.040256
0.032449
0.024972
0.018322
0.012794
0.007833
0.0042732
0.0020484
0.00093472
0.0010656
0.0025348
0.0054435
0.009243
0.013931
0.01952
0.025602
0.031562
0.038182
0.044678
0.050792
0.057103
0.062792
0.067869
0.072389
0.076069
0.078891
0.080334
0.081144
0.081835
0.081877
0.08106
0.08043
0.07942
0.07814
0.076303
0.074791
0.073268
0.071625
0.070731
0.0699
0.069659
0.069782
0.070164
0.070573
0.071269
0.071897
0.072375
0.072821
0.072891
0.072079
0.071386
0.070431
0.068836
0.066457
0.064
0.061144
0.058376
0.05517
0.05234
0.049854
0.04725
0.045307
0.042979
0.041184
0.039736
0.038185
0.037272
0.037178
0.037307
0.037709
0.039208
0.041029
0.04312
0.045431
0.047875
0.050164
0.052516
0.054503
0.056232
0.057989
0.059316
0.060582
0.061507
0.062153
0.062589
0.062759
0.063285
0.063554
0.063738
0.063851
0.063747
0.063697
0.063546
0.063501
0.063642
0.063622
0.063509
0.064016
0.06404
0.063868
0.06416
0.064126
0.063898
0.063751
0.063386
0.063108
0.062451
0.062068
0.061771
0.061244
0.060856
0.060188
0.059338
0.058169
0.056834
0.055569
0.053802
0.05217
0.050793
0.049307
0.047407
0.046295
0.045251
0.043827
0.042782
0.041519
0.040372
0.038593
0.036992
0.03551
0.033448
0.031955
0.031104
0.030419
0.030536
0.031218
0.032022
0.033254
0.034762
0.035935
0.037111
0.037768
0.037992
0.038034
0.03773
0.037011
0.036367
0.035397
0.03449
0.033564
0.032431
0.031563
0.0307
0.0299
0.02942
0.029265
0.029724
0.031063
0.032543
0.034526
0.037133
0.03984
0.043029
0.04603
0.04917
0.052891
0.056498
0.060089
0.063645
0.067065
0.069642
0.071683
0.072507
0.072339
0.071075
0.06871
0.065101
0.061041
0.055999
0.050002
0.044196
0.037973
0.032217
0.026578
0.021847
0.017698
0.014908
0.012601
0.011055
0.010639
0.010992
0.012148
0.014373
0.017217
0.021004
0.025576
0.030706
0.03581
0.041561
0.046736
0.051646
0.056141
0.059622
0.061825
0.063215
0.063824
0.063596
0.062518
0.061211
0.059615
0.057659
0.055619
0.053693
0.051628
0.049484
0.047519
0.045784
0.044231
0.042621
0.041636
0.041061
0.040914
0.041474
0.042196
0.043076
0.044112
0.045332
0.046225
0.046988
0.048061
0.048398
0.048986
0.04874
0.048441
0.048105
0.047103
0.046702
0.045689
0.044699
0.043511
0.041701
0.040142
0.038041
0.035597
0.032914
0.030439
0.027817
0.025564
0.023329
0.021623
0.020662
0.020064
0.020022
0.020547
0.021693
0.022967
0.024798
0.026617
0.028595
0.031012
0.03342
0.036413
0.039163
0.04238
0.045195
0.048228
0.05043
0.052531
0.054215
0.055051
0.05525
0.055167
0.054541
0.053639
0.052156
0.050501
0.048794
0.046654
0.045093
0.043158
0.041569
0.040364
0.038996
0.03866
0.03803
0.038317
0.038663
0.039691
0.040696
0.041853
0.043159
0.044575
0.045557
0.046409
0.046665
0.046905
0.046466
0.045481
0.044463
0.04287
0.040572
0.038285
0.035544
0.032773
0.030313
0.027394
0.025006
0.022841
0.020581
0.01868
0.016521
0.014974
0.013459
0.01211
0.010911
0.010462
0.01004
0.010146
0.010601
0.011205
0.012061
0.012758
0.014059
0.015127
0.016427
0.017842
0.019524
0.021168
0.022527
0.024279
0.025996
0.027932
0.02992
0.031732
0.03401
0.036602
0.039089
0.041611
0.044377
0.047029
0.049524
0.052041
0.054367
0.056379
0.058296
0.059713
0.060723
0.061231
0.061605
0.061598
0.061243
0.060755
0.059819
0.058624
0.057105
0.055365
0.053457
0.051744
0.049844
0.04779
0.04553
0.04306
0.040561
0.038076
0.035759
0.033539
0.031435
0.029683
0.028248
0.026901
0.025653
0.024548
0.023506
0.022241
0.021241
0.020367
0.019653
0.019373
0.019003
0.019247
0.019471
0.020105
0.021298
0.022542
0.023743
0.025397
0.026667
0.02757
0.028514
0.028971
0.029183
0.029254
0.029474
0.029853
0.03014
0.030496
0.030686
0.031055
0.031317
0.031585
0.03231
0.032921
0.033475
0.03474
0.035691
0.036503
0.038124
0.039327
0.040871
0.04219
0.043861
0.045368
0.046504
0.047578
0.048899
0.049299
0.049443
0.04887
0.04735
0.045244
0.042337
0.038813
0.034873
0.031075
0.027244
0.023654
0.020955
0.0186
0.017334
0.016265
0.015881
0.015534
0.015933
0.016157
0.016883
0.017649
0.018485
0.019904
0.021153
0.023126
0.025133
0.027296
0.029923
0.032359
0.035125
0.037806
0.04011
0.04195
0.043552
0.044485
0.045083
0.045082
0.045051
0.044668
0.044269
0.043542
0.04293
0.041968
0.041238
0.040052
0.038714
0.037106
0.03532
0.03353
0.031502
0.029403
0.02783
0.026004
0.023925
0.02214
0.020243
0.018708
0.016974
0.015507
0.014867
0.014382
0.014422
0.015119
0.01589
0.016827
0.017775
0.019007
0.020385
0.021475
0.022656
0.023416
0.02424
0.024498
0.024736
0.024832
0.024584
0.024589
0.024773
0.02421
0.023511
0.023031
0.022217
0.021269
0.020221
0.019268
0.018591
0.018458
0.01888
0.020092
0.021292
0.023167
0.025608
0.028184
0.030786
0.033879
0.036572
0.039042
0.041499
0.043317
0.044771
0.045941
0.046969
0.047308
0.047425
0.047093
0.046874
0.046502
0.046239
0.045675
0.045258
0.044929
0.044468
0.044415
0.044063
0.044283
0.044763
0.045289
0.046031
0.047447
0.049088
0.050335
0.051562
0.052711
0.053491
0.053261
0.052328
0.050737
0.048225
0.044723
0.040545
0.035348
0.029579
0.023187
0.016463
0.0096355
0.0025727
-0.0040797
-0.010495
-0.016738
-0.022262
-0.026946
-0.030734
-0.034021
-0.036662
-0.038764
-0.04031
-0.041027
-0.041743
-0.042011
-0.041593
-0.041137
-0.040521
-0.039652
-0.038717
-0.038081
-0.037377
-0.036839
-0.036212
-0.035473
-0.034894
-0.033986
-0.03294
-0.03156
-0.02986
-0.028221
-0.025837
-0.023243
-0.020169
-0.01654
-0.012215
-0.0080163
-0.0032172
0.0012919
0.0066422
0.011791
0.017381
0.022764
0.027639
0.032274
0.036245
0.039679
0.04214
0.044341
0.045685
0.046431
0.047372
0.047634
0.047818
0.047691
0.04713
0.046664
0.046286
0.045929
0.045856
0.045934
0.046979
0.048594
0.050127
0.051986
0.053753
0.054954
0.055128
0.054696
0.052586
0.050027
0.045708
0.040204
0.03312
0.02478
0.01485
0.0036766
-0.0088561
-0.022956
-0.038385
-0.055613
-0.07323
-0.091461
-0.10925
-0.12622
-0.14141
-0.15449
-0.16448
-0.1708
-0.17354
-0.1719
-0.16565
-0.15493
-0.14033
-0.12164
-0.099468
-0.074672
-0.047378
-0.017669
0.01396
0.047172
0.081518
0.11677
0.15357
0.19098
0.22915
0.26676
0.30392
0.34004
0.37458
0.40736
0.43723
0.4641
0.48671
0.5053
0.51882
0.52778
0.53208
0.5314
0.52612
0.5161
0.50148
0.48223
0.45847
0.43028
0.39796
0.36218
0.3231
0.28127
0.23737
0.19267
0.14818
0.10449
0.063424
0.024682
-0.01014
-0.040772
-0.066581
-0.087068
-0.1028
-0.11318
-0.11856
-0.11982
-0.11677
-0.11068
-0.10212
-0.091492
-0.079331
-0.066993
-0.054478
-0.042329
-0.030888
-0.020517
-0.011927
-0.0049133
-7.15E-05
0.0028046
0.0039372
0.0032136
0.00087943
-0.0027923
-0.0077669
-0.013767
-0.019785
-0.026078
-0.031977
-0.037584
-0.042378
-0.046441
-0.049994
-0.052308
-0.054302
-0.055168
-0.055943
-0.055612
-0.054727
-0.053772
-0.05246
-0.05113
-0.04979
-0.048237
-0.047428
-0.046629
-0.045761
-0.045275
-0.044953
-0.044649
-0.043801
-0.043171
-0.04241
-0.040946
-0.039164
-0.036996
-0.034691
-0.032026
-0.029539
-0.026382
-0.023484
-0.02065
-0.017782
-0.015385
-0.012896
-0.010961
-0.0093495
-0.0082847
-0.0077145
-0.0075493
-0.0078098
-0.0085036
-0.0092545
-0.010035
-0.011105
-0.011971
-0.012647
-0.013057
-0.013314
-0.01333
-0.012625
-0.011391
-0.0099198
-0.0081834
-0.0064996
-0.0048028
-0.0030074
-0.0016908
-0.00070104
-0.00057626
-0.00053458
-0.0010013
-0.0021753
-0.0039493
-0.0066316
-0.0097839
-0.01349
-0.017667
-0.022176
-0.027214
-0.031898
-0.036608
-0.041219
-0.045505
-0.048988
-0.051618
-0.053441
-0.054597
-0.054351
-0.053179
-0.051347
-0.048677
-0.045416
-0.041417
-0.037313
-0.032824
-0.028324
-0.023374
-0.018771
-0.014425
-0.010211
-0.0066181
-0.0041315
-0.0019269
-0.00089675
-0.00083426
-0.0015985
-0.003506
-0.0064008
-0.010322
-0.015197
-0.021272
-0.028091
-0.03543
-0.043232
-0.051124
-0.05904
-0.066657
-0.073777
-0.080732
-0.086436
-0.091638
-0.095894
-0.099382
-0.10169
-0.10297
-0.10291
-0.10187
-0.099731
-0.09654
-0.092614
-0.088049
-0.083257
-0.07861
-0.07365
-0.069006
-0.064984
-0.061148
-0.058106
-0.055795
-0.05454
-0.053824
-0.053957
-0.055602
-0.057719
-0.0609
-0.064306
-0.068351
-0.072351
-0.076027
-0.079168
-0.082155
-0.08478
-0.086714
-0.088166
-0.089215
-0.089743
-0.088984
-0.08814
-0.086718
-0.08536
-0.083412
-0.081896
-0.081047
-0.080158
-0.080165
-0.081155
-0.082915
-0.085514
-0.089027
-0.093506
-0.0987
-0.10443
-0.11071
-0.11706
-0.12364
-0.12981
-0.13595
-0.14143
-0.1467
-0.15105
-0.15501
-0.15828
-0.16052
-0.16206
-0.16337
-0.16373
-0.16364
-0.16321
-0.16244
-0.16213
-0.16155
-0.16158
-0.16182
-0.16243
-0.16333
-0.16471
-0.16633
-0.16802
-0.16976
-0.17136
-0.17272
-0.17373
-0.17472
-0.17502
-0.17546
-0.17539
-0.17507
-0.17451
-0.17355
-0.17192
-0.16997
-0.16769
-0.1649
-0.16211
-0.15897
-0.15659
-0.15348
-0.15093
-0.14869
-0.14658
-0.1446
-0.14298
-0.14162
-0.14
-0.13833
-0.13633
-0.1338
-0.13071
-0.12691
-0.12232
-0.11717
-0.11129
-0.10498
-0.098282
-0.091029
-0.0838
-0.076621
-0.069137
-0.061784
-0.054635
-0.047453
-0.040593
-0.034047
-0.02734
-0.020614
-0.014088
-0.0076433
-0.0014329
0.0043202
0.0099896
0.015914
0.021443
0.026761
0.031969
0.037164
0.042402
0.047764
0.053234
0.058697
0.064697
0.070946
0.077031
0.083141
0.089661
0.096256
0.10234
0.10795
0.1126
0.1169
0.12
0.12281
0.12432
0.12563
0.12613
0.12583
0.12538
0.12436
0.12249
0.1207
0.11863
0.11648
0.11435
0.11268
0.11097
0.10972
0.10887
0.1089
0.10969
0.11147
0.11373
0.11669
0.12088
0.1251
0.1302
0.13539
0.14095
0.14591
0.15105
0.15577
0.16016
0.16358
0.16628
0.16827
0.16908
0.16884
0.1674
0.16547
0.16277
0.1593
0.1553
0.1509
0.14577
0.14094
0.13602
0.13098
0.12668
0.1227
0.11931
0.11638
0.1142
0.11288
0.11156
0.11112
0.11096
0.11116
0.11219
0.11364
0.11528
0.11748
0.11978
0.12219
0.12469
0.12691
0.12918
0.13154
0.13383
0.13625
0.13814
0.14011
0.14166
0.14274
0.14366
0.1441
0.14435
0.14455
0.14485
0.14477
0.14481
0.1451
0.14492
0.1448
0.14449
0.14363
0.14291
0.14162
0.13978
0.1374
0.1347
0.13168
0.12819
0.12479
0.12124
0.11777
0.11478
0.11199
0.10987
0.10857
0.10702
0.10611
0.10491
0.10448
0.10415
0.10374
0.10336
0.10324
0.10315
0.10239
0.10169
0.10089
0.10017
0.099072
0.097194
0.094945
0.092345
0.088651
0.084568
0.080411
0.075983
0.071181
0.066073
0.061239
0.056755
0.052587
0.049418
0.047123
0.046312
0.046648
0.047968
0.050583
0.053782
0.058466
0.063322
0.069107
0.075015
0.081296
0.087178
0.093485
0.099634
0.10512
0.11026
0.11458
0.1183
0.12132
0.12362
0.12489
0.12528
0.12542
0.12464
0.12351
0.12183
0.11964
0.11771
0.11526
0.11242
0.10983
0.1067
0.10358
0.10037
0.097504
0.094806
0.092598
0.090819
0.088816
0.087308
0.086054
0.084304
0.082972
0.080778
0.07954
0.077739
0.075579
0.074032
0.072673
0.071837
0.071668
0.07157
0.07182
0.072154
0.072494
0.072787
0.073322
0.07418
0.07499
0.075736
0.076342
0.077014
0.078052
0.078378
0.079013
0.079053
0.079164
0.079375
0.079038
0.07882
0.077686
0.07666
0.075271
0.073824
0.071522
0.069503
0.067712
0.065867
0.064418
0.062884
0.061502
0.060238
0.059222
0.057881
0.056774
0.056173
0.055585
0.055541
0.055704
0.056011
0.056678
0.057568
0.058398
0.05934
0.060234
0.061248
0.062457
0.063902
0.065617
0.0678
0.069414
0.071234
0.073488
0.075145
0.077044
0.078997
0.080042
0.081226
0.083035
0.084705
0.086523
0.088315
0.090102
0.091316
0.092608
0.093354
0.093325
0.093184
0.092127
0.090671
0.089246
0.087082
0.085247
0.082991
0.080847
0.079167
0.076865
0.074559
0.072124
0.069509
0.06675
0.063854
0.061039
0.058733
0.056305
0.054495
0.052633
0.050923
0.049933
0.049313
0.049077
0.049156
0.049802
0.050815
0.052269
0.054396
0.056669
0.059077
0.061951
0.065
0.067665
0.070624
0.073786
0.076622
0.079283
0.081629
0.08426
0.086365
0.088177
0.089394
0.090057
0.090342
0.090243
0.089671
0.088831
0.087947
0.087187
0.086087
0.084962
0.084088
0.082946
0.082027
0.081086
0.080529
0.08027
0.080042
0.080059
0.079989
0.080151
0.079857
0.079295
0.078161
0.076572
0.074162
0.071549
0.068135
0.064507
0.060265
0.056074
0.051579
0.047366
0.04323
0.039475
0.035828
0.032558
0.029755
0.026933
0.024876
0.022925
0.021643
0.021166
0.021206
0.021863
0.023036
0.024952
0.026906
0.02923
0.031165
0.033202
0.035179
0.037352
0.039391
0.041951
0.044464
0.046876
0.049506
0.052112
0.054645
0.056942
0.058992
0.060879
0.062357
0.064036
0.065467
0.066851
0.06837
0.069683
0.070894
0.071961
0.073022
0.073877
0.074526
0.074966
0.075457
0.075751
0.075707
0.076064
0.076332
0.076459
0.076064
0.075632
0.074704
0.073349
0.071526
0.069634
0.067283
0.064655
0.062193
0.059645
0.056866
0.054387
0.051739
0.048607
0.045512
0.042921
0.039902
0.036641
0.033541
0.031077
0.028733
0.026816
0.025661
0.024957
0.024391
0.024809
0.025621
0.026992
0.028852
0.031175
0.034218
0.037814
0.041652
0.045998
0.050516
0.05489
0.059388
0.063665
0.067552
0.071455
0.074839
0.078038
0.080703
0.083013
0.085313
0.087017
0.08829
0.088848
0.088878
0.088185
0.086648
0.084405
0.081217
0.078209
0.073983
0.068879
0.063626
0.057648
0.051358
0.045289
0.039301
0.033885
0.029272
0.025574
0.022523
0.020551
0.019444
0.019279
0.019937
0.020911
0.02253
0.024273
0.026504
0.029397
0.032603
0.036291
0.040864
0.045367
0.049959
0.054648
0.058893
0.062994
0.06621
0.068674
0.069934
0.070091
0.069304
0.067808
0.065122
0.062202
0.058926
0.055514
0.052607
0.050099
0.047611
0.045979
0.04437
0.042611
0.041528
0.040181
0.039338
0.038551
0.037486
0.037134
0.037132
0.037256
0.03758
0.038622
0.039588
0.040949
0.041937
0.04266
0.043404
0.043404
0.043078
0.042227
0.041298
0.04001
0.038473
0.036574
0.03469
0.032657
0.030582
0.028921
0.02739
0.026305
0.025351
0.024848
0.024713
0.024841
0.025412
0.02573
0.026282
0.027158
0.02798
0.029029
0.030481
0.031408
0.032768
0.034173
0.035041
0.03605
0.037373
0.038022
0.039184
0.040387
0.041629
0.042603
0.043971
0.045245
0.046446
0.047204
0.048127
0.049155
0.04995
0.050658
0.051352
0.051917
0.052826
0.053626
0.0547
0.05576
0.056781
0.057516
0.058049
0.058955
0.059351
0.059315
0.059278
0.058905
0.058374
0.057664
0.056975
0.056171
0.055708
0.055868
0.055781
0.056482
0.057198
0.058348
0.059519
0.060456
0.061534
0.062553
0.062981
0.063682
0.063478
0.063172
0.062679
0.061791
0.060742
0.059357
0.057404
0.055008
0.05214
0.048662
0.044711
0.040867
0.036726
0.032867
0.028919
0.025191
0.021964
0.018825
0.016198
0.014283
0.012673
0.011906
0.011506
0.01181
0.012064
0.01304
0.014511
0.01622
0.018359
0.02053
0.023146
0.026023
0.02905
0.032169
0.035227
0.038273
0.040701
0.042864
0.044719
0.046281
0.047298
0.048462
0.049437
0.049923
0.050609
0.050982
0.050882
0.050668
0.04979
0.048172
0.046172
0.043666
0.041098
0.03839
0.036066
0.034076
0.032221
0.031433
0.030978
0.030428
0.029953
0.029905
0.029025
0.028174
0.027598
0.027049
0.026689
0.027191
0.027923
0.029727
0.03194
0.034375
0.03724
0.040244
0.043591
0.046722
0.049757
0.052923
0.055357
0.057683
0.059788
0.06147
0.063239
0.064614
0.065799
0.066945
0.068092
0.069178
0.069624
0.069664
0.069069
0.068025
0.066345
0.064282
0.061601
0.058623
0.0554
0.051958
0.048298
0.0446
0.04102
0.037216
0.033484
0.030177
0.026653
0.023755
0.020897
0.018197
0.016241
0.014347
0.012672
0.011199
0.0096601
0.0085625
0.0073022
0.0063995
0.0058784
0.0054422
0.0057399
0.0058157
0.0061024
0.0067425
0.0075458
0.0085426
0.010169
0.011575
0.013474
0.015754
0.018287
0.020999
0.02417
0.027269
0.031172
0.034685
0.038523
0.042172
0.045765
0.049152
0.052054
0.054994
0.057268
0.059541
0.060941
0.062457
0.063987
0.064977
0.06537
0.065641
0.065254
0.06464
0.063769
0.06206
0.060593
0.058999
0.05717
0.055771
0.054026
0.052121
0.050549
0.04906
0.047176
0.045985
0.044746
0.043867
0.042698
0.042242
0.041833
0.041193
0.04048
0.04003
0.038993
0.037342
0.035823
0.033646
0.031263
0.029171
0.027217
0.025331
0.023776
0.022557
0.021168
0.019929
0.01839
0.016947
0.014658
0.012705
0.010248
0.0076412
0.0051193
0.0028835
0.00073615
-0.0008453
-0.0021734
-0.0034563
-0.0044587
-0.0056958
-0.0064385
-0.007579
-0.0082611
-0.0092204
-0.010592
-0.011799
-0.012758
-0.014566
-0.015933
-0.017058
-0.0183
-0.019114
-0.019671
-0.020117
-0.020457
-0.020143
-0.019842
-0.019669
-0.0188
-0.017937
-0.016852
-0.014916
-0.013273
-0.010512
-0.0072687
-0.0032695
0.0013306
0.0062272
0.011754
0.017203
0.023354
0.028355
0.033751
0.038747
0.043741
0.048371
0.05248
0.056133
0.059762
0.062051
0.064057
0.065596
0.066344
0.066911
0.066858
0.06642
0.06586
0.065431
0.064728
0.064221
0.064129
0.063919
0.063981
0.064369
0.065037
0.065771
0.066729
0.067962
0.068983
0.069667
0.069828
0.069279
0.067131
0.064247
0.059905
0.053873
0.046371
0.037216
0.026069
0.013534
-0.00047089
-0.015806
-0.032371
-0.04962
-0.067154
-0.084926
-0.1021
-0.11922
-0.13482
-0.1487
-0.16075
-0.17027
-0.17646
-0.1791
-0.17742
-0.17088
-0.15976
-0.14353
-0.12345
-0.099147
-0.071573
-0.041741
-0.0097574
0.024156
0.060149
0.096722
0.13522
0.17427
0.21365
0.25356
0.29273
0.33105
0.36764
0.40203
0.43365
0.46207
0.48668
0.50721
0.52337
0.53483
0.54091
0.54246
0.53902
0.53036
0.51731
0.49994
0.47853
0.45344
0.4245
0.39212
0.35681
0.31918
0.27903
0.2376
0.19553
0.15384
0.11302
0.074099
0.038247
0.0053497
-0.024051
-0.049697
-0.07097
-0.088334
-0.10139
-0.11083
-0.1161
-0.11839
-0.11779
-0.11466
-0.10955
-0.10283
-0.094899
-0.086285
-0.077138
-0.068082
-0.059577
-0.051371
-0.044251
-0.038046
-0.033264
-0.029908
-0.027796
-0.027044
-0.026991
-0.028176
-0.030179
-0.032076
-0.034099
-0.035732
-0.036937
-0.037654
-0.037842
-0.037464
-0.036575
-0.034879
-0.033031
-0.030538
-0.027263
-0.024168
-0.020125
-0.016026
-0.011578
-0.0069247
-0.0026738
0.0018998
0.0061953
0.0097404
0.012966
0.015398
0.017162
0.018135
0.017785
0.016768
0.014636
0.012159
0.0086613
0.0046275
0.0001073
-0.0049498
-0.010301
-0.015543
-0.021033
-0.026757
-0.031978
-0.036562
-0.041021
-0.044582
-0.047444
-0.049806
-0.051169
-0.05168
-0.051381
-0.0505
-0.048923
-0.04667
-0.04365
-0.040544
-0.037265
-0.033709
-0.029955
-0.026387
-0.023398
-0.020738
-0.018407
-0.016806
-0.015177
-0.014081
-0.013596
-0.013456
-0.013432
-0.013839
-0.014312
-0.015035
-0.01586
-0.016399
-0.017133
-0.018141
-0.019521
-0.020887
-0.022421
-0.024167
-0.025589
-0.027244
-0.028419
-0.029601
-0.0306
-0.031285
-0.032134
-0.032663
-0.033542
-0.034059
-0.034688
-0.035155
-0.035488
-0.035977
-0.03622
-0.036548
-0.036685
-0.036727
-0.036693
-0.036843
-0.036722
-0.037066
-0.037096
-0.037082
-0.037178
-0.037723
-0.038247
-0.039312
-0.040668
-0.04213
-0.044306
-0.046742
-0.049526
-0.052228
-0.055055
-0.057665
-0.060111
-0.062503
-0.064477
-0.065943
-0.067004
-0.067383
-0.067355
-0.067072
-0.066229
-0.065057
-0.063707
-0.061933
-0.060608
-0.059569
-0.058126
-0.057303
-0.056385
-0.056152
-0.055672
-0.055691
-0.056164
-0.057085
-0.058605
-0.060748
-0.063097
-0.066365
-0.069756
-0.073271
-0.076996
-0.080935
-0.084784
-0.088452
-0.092342
-0.096325
-0.10056
-0.10453
-0.10824
-0.11214
-0.11551
-0.11882
-0.12168
-0.12417
-0.12618
-0.12784
-0.12891
-0.12963
-0.13014
-0.13082
-0.13123
-0.13178
-0.13249
-0.13273
-0.1332
-0.13351
-0.13313
-0.13279
-0.1322
-0.13121
-0.13047
-0.1296
-0.12944
-0.12918
-0.12959
-0.13058
-0.13201
-0.13373
-0.13604
-0.13873
-0.14196
-0.14508
-0.14888
-0.1528
-0.1569
-0.16123
-0.16587
-0.17049
-0.17523
-0.18002
-0.18439
-0.1882
-0.1914
-0.19406
-0.1961
-0.19731
-0.1977
-0.19786
-0.19739
-0.19623
-0.19457
-0.19262
-0.19013
-0.18702
-0.18378
-0.18032
-0.17657
-0.17276
-0.16902
-0.16584
-0.16297
-0.16047
-0.15871
-0.15742
-0.1564
-0.15587
-0.15529
-0.15499
-0.15464
-0.15401
-0.1536
-0.15292
-0.15209
-0.15091
-0.1497
-0.14825
-0.1459
-0.14352
-0.14035
-0.13671
-0.13218
-0.12719
-0.12116
-0.11463
-0.10709
-0.099035
-0.090202
-0.081288
-0.071736
-0.061839
-0.051766
-0.041302
-0.031186
-0.020949
-0.011167
-0.0014075
0.0079514
0.016705
0.02501
0.032554
0.039612
0.045532
0.05095
0.055633
0.059744
0.063264
0.066276
0.068957
0.071419
0.073929
0.07566
0.077827
0.07961
0.080858
0.083338
0.08571
0.088496
0.091926
0.095298
0.099105
0.10273
0.10672
0.11051
0.11434
0.11827
0.12198
0.1255
0.12866
0.13162
0.13399
0.13606
0.13801
0.13952
0.14076
0.14158
0.14209
0.1424
0.1422
0.14162
0.14099
0.14003
0.13923
0.13838
0.1377
0.13717
0.137
0.13683
0.13665
0.13665
0.13706
0.13697
0.13717
0.13713
0.13699
0.13692
0.13676
0.13703
0.13758
0.13862
0.14006
0.1418
0.14376
0.14513
0.14642
0.14716
0.14737
0.14728
0.14679
0.14631
0.14543
0.14488
0.1441
0.14302
0.14224
0.14113
0.1398
0.13857
0.13688
0.13485
0.13315
0.13101
0.12909
0.12728
0.12501
0.12315
0.12148
0.11956
0.11758
0.11537
0.11366
0.11188
0.11007
0.10911
0.10769
0.10725
0.10679
0.10685
0.10723
0.10805
0.10876
0.11012
0.11123
0.11268
0.11422
0.1158
0.11754
0.11933
0.12098
0.12254
0.12387
0.12496
0.12521
0.12512
0.12444
0.12309
0.1209
0.1184
0.1152
0.11156
0.10758
0.10335
0.09871
0.094577
0.090215
0.086358
0.082771
0.080139
0.077737
0.075777
0.074454
0.073922
0.074564
0.075309
0.077204
0.079105
0.081072
0.084008
0.086806
0.089689
0.092261
0.094643
0.096632
0.098287
0.099402
0.099861
0.1
0.099395
0.098777
0.097515
0.096107
0.09463
0.093019
0.091283
0.089785
0.08845
0.087634
0.086787
0.086762
0.087226
0.088217
0.08948
0.090881
0.092767
0.094495
0.096311
0.098003
0.099511
0.10078
0.10127
0.10148
0.10097
0.10022
0.097995
0.095449
0.092637
0.089021
0.084647
0.080694
0.076547
0.07189
0.067493
0.06294
0.059236
0.055494
0.051984
0.049295
0.047121
0.045383
0.043828
0.043059
0.042865
0.043084
0.043752
0.044556
0.045877
0.047425
0.048857
0.050427
0.052475
0.054078
0.05576
0.057455
0.059171
0.060701
0.061827
0.063249
0.064516
0.065426
0.065809
0.066172
0.066426
0.066229
0.066097
0.066022
0.065689
0.065463
0.065308
0.064911
0.064603
0.064539
0.06458
0.0645
0.064287
0.064497
0.06495
0.065457
0.06624
0.067306
0.068722
0.070507
0.072078
0.07358
0.07504
0.07634
0.077467
0.077986
0.077902
0.077785
0.07683
0.076105
0.075153
0.074204
0.073456
0.07224
0.070818
0.069184
0.067642
0.065723
0.063873
0.060914
0.058545
0.055788
0.052597
0.049829
0.047174
0.045326
0.043394
0.041883
0.040749
0.039972
0.039038
0.038419
0.037537
0.037442
0.037282
0.037631
0.038336
0.039446
0.041
0.043268
0.045671
0.048172
0.051275
0.054543
0.057866
0.060778
0.063922
0.066886
0.06925
0.071082
0.072519
0.073727
0.074488
0.074504
0.074298
0.073615
0.072235
0.070794
0.06868
0.066445
0.063987
0.061177
0.058055
0.054721
0.05172
0.048401
0.045765
0.043057
0.041084
0.039776
0.038581
0.037754
0.037763
0.037828
0.038485
0.039559
0.040612
0.042239
0.043763
0.045774
0.047312
0.049341
0.05111
0.052767
0.054217
0.055082
0.055175
0.05506
0.054088
0.052606
0.050708
0.048489
0.046272
0.04365
0.041411
0.039785
0.03815
0.036802
0.03611
0.035484
0.035655
0.036446
0.037996
0.040368
0.043728
0.047814
0.052372
0.057574
0.06332
0.068971
0.074094
0.078661
0.081871
0.084978
0.087021
0.088483
0.088977
0.088579
0.087114
0.085084
0.082354
0.079551
0.076167
0.071873
0.06705
0.061947
0.057144
0.05279
0.048285
0.044708
0.041633
0.039453
0.038241
0.0374
0.037393
0.037787
0.038851
0.04044
0.042103
0.044319
0.045757
0.047194
0.048197
0.048653
0.048815
0.048608
0.048157
0.04737
0.046328
0.04507
0.04341
0.040973
0.038834
0.036101
0.033376
0.030815
0.028152
0.025843
0.024069
0.022208
0.020691
0.019674
0.018685
0.018344
0.018027
0.018159
0.018362
0.018696
0.019244
0.020094
0.020625
0.021616
0.022599
0.024112
0.025705
0.027727
0.030006
0.032044
0.034161
0.036798
0.03922
0.041725
0.04398
0.045842
0.047745
0.049152
0.050448
0.051655
0.053056
0.054292
0.055121
0.056304
0.057194
0.058231
0.058838
0.059301
0.059831
0.060531
0.060994
0.061674
0.062678
0.063824
0.064971
0.066432
0.067954
0.068859
0.070352
0.071298
0.071987
0.072926
0.073405
0.073477
0.073278
0.072426
0.071147
0.069653
0.067335
0.064631
0.06136
0.057658
0.053468
0.048789
0.043367
0.037673
0.032053
0.026343
0.020519
0.014878
0.0093882
0.0042891
-0.00043018
-0.0049007
-0.0091118
-0.012327
-0.01551
-0.018067
-0.020042
-0.021653
-0.022695
-0.022735
-0.022329
-0.020721
-0.018187
-0.014984
-0.010547
-0.0055037
0.00034137
0.0067476
0.01373
0.020757
0.028287
0.035799
0.043083
0.050875
0.058022
0.064898
0.071188
0.076832
0.080899
0.084761
0.087545
0.089119
0.089767
0.089668
0.088058
0.085942
0.082579
0.079069
0.074826
0.069812
0.064727
0.059944
0.055627
0.051781
0.048529
0.046238
0.044665
0.043276
0.042581
0.042371
0.042366
0.042394
0.042573
0.04251
0.042486
0.042207
0.041327
0.040488
0.038684
0.036495
0.033471
0.029805
0.025957
0.021549
0.017305
0.01252
0.0080533
0.0041134
0.00042709
-0.0024778
-0.004798
-0.0061316
-0.0068242
-0.0064675
-0.0044791
-0.0021223
0.00098284
0.0052817
0.010045
0.015325
0.021029
0.026902
0.032796
0.038586
0.044069
0.049153
0.053936
0.057899
0.061268
0.063922
0.065851
0.066696
0.066995
0.066543
0.065406
0.063699
0.061994
0.060138
0.058006
0.056061
0.054143
0.051762
0.049668
0.047571
0.045448
0.043154
0.041184
0.03919
0.036904
0.034606
0.032685
0.030977
0.029206
0.027495
0.026227
0.024582
0.023435
0.021925
0.020584
0.019345
0.017797
0.016218
0.014379
0.012695
0.010689
0.0083836
0.0062618
0.0041378
0.0024288
0.00081803
0.00021729
-0.00021989
-0.00035783
-0.00011247
0.00068691
0.0015575
0.0027124
0.0046082
0.0070808
0.009659
0.01341
0.017811
0.022452
0.028017
0.033852
0.039992
0.046178
0.052291
0.057831
0.062844
0.066816
0.070117
0.072382
0.073755
0.073869
0.073164
0.071384
0.068727
0.065528
0.061526
0.05699
0.051912
0.046393
0.040497
0.034857
0.029055
0.023458
0.018495
0.014251
0.010552
0.0078376
0.0064412
0.0060887
0.0066659
0.0082323
0.011057
0.0146
0.018637
0.023119
0.027688
0.032443
0.036593
0.040314
0.043476
0.046022
0.047574
0.048515
0.048568
0.047605
0.046451
0.044354
0.041709
0.038984
0.035612
0.032051
0.028715
0.025023
0.021327
0.017939
0.014775
0.011922
0.0090739
0.0069418
0.0049658
0.002944
0.0018592
0.0011078
0.00035783
8.24E-05
-0.00014178
-0.00022927
1.20E-05
0.00028821
0.00048533
0.00043369
0.00038819
0.00020918
0.00022029
0.00036632
0.00058033
0.00085289
0.0017403
0.0025852
0.00384
0.0054907
0.0076537
0.0099012
0.012519
0.015694
0.019034
0.022674
0.026544
0.029975
0.033467
0.036935
0.039665
0.041543
0.043356
0.044681
0.045267
0.045028
0.044257
0.042855
0.04099
0.038485
0.03516
0.031325
0.02707
0.0219
0.016865
0.01154
0.006714
0.0017351
-0.0028376
-0.0071046
-0.010687
-0.01376
-0.016515
-0.018961
-0.020766
-0.022212
-0.023338
-0.024352
-0.025635
-0.026575
-0.027446
-0.028432
-0.029528
-0.03047
-0.031312
-0.032494
-0.033923
-0.035539
-0.037085
-0.038784
-0.040377
-0.042105
-0.043297
-0.044146
-0.04435
-0.043635
-0.042482
-0.040305
-0.037188
-0.033083
-0.028597
-0.022994
-0.016571
-0.0097568
-0.0021117
0.0059974
0.014267
0.023058
0.031671
0.039851
0.047689
0.054669
0.06075
0.066022
0.070019
0.072955
0.07513
0.076162
0.076451
0.075838
0.074706
0.07349
0.071577
0.06965
0.0673
0.064825
0.062131
0.059541
0.056946
0.054567
0.052225
0.050028
0.048603
0.04717
0.045846
0.044877
0.044185
0.043468
0.042984
0.042059
0.041071
0.039664
0.037301
0.034231
0.030236
0.025396
0.019393
0.012915
0.0052453
-0.0025802
-0.011482
-0.02122
-0.031441
-0.042582
-0.054193
-0.066869
-0.080082
-0.093346
-0.10625
-0.11844
-0.12938
-0.13846
-0.14544
-0.14985
-0.1512
-0.14924
-0.14315
-0.13379
-0.12052
-0.10394
-0.084544
-0.062007
-0.037334
-0.010334
0.018488
0.049581
0.081701
0.11534
0.15073
0.1872
0.22471
0.26234
0.29986
0.33677
0.37235
0.40621
0.43764
0.46597
0.49056
0.51058
0.52585
0.53647
0.54205
0.54274
0.53878
0.52997
0.51599
0.49764
0.47445
0.44643
0.41409
0.37761
0.33793
0.29559
0.25134
0.20626
0.16092
0.11697
0.075343
0.036286
0.00031714
-0.031443
-0.058926
-0.081389
-0.099618
-0.11315
-0.12203
-0.1268
-0.12733
-0.12443
-0.11825
-0.10994
-0.099599
-0.088052
-0.075899
-0.063397
-0.05131
-0.040188
-0.029721
-0.020558
-0.012745
-0.0061849
-0.00093165
0.0030963
0.0058416
0.0073317
0.007616
0.00671
0.0048807
0.0028521
6.11E-05
-0.0031139
-0.0066654
-0.0099759
-0.013455
-0.016798
-0.020015
-0.023403
-0.026115
-0.028737
-0.031593
-0.034446
-0.036733
-0.038679
-0.040003
-0.040867
-0.041198
-0.040994
-0.039837
-0.038421
-0.036687
-0.034366
-0.03226
-0.030099
-0.027956
-0.026451
-0.025175
-0.024507
-0.024471
-0.025137
-0.026014
-0.026997
-0.028662
-0.030356
-0.032088
-0.033296
-0.034789
-0.03576
-0.03667
-0.037184
-0.037811
-0.03782
-0.037551
-0.036644
-0.034335
-0.031762
-0.028031
-0.023586
-0.018633
-0.013508
-0.0083573
-0.0032082
0.0014574
0.005848
0.0092476
0.012102
0.013884
0.015041
0.015128
0.014318
0.013
0.010896
0.0080077
0.004565
0.00053859
-0.0038748
-0.0088198
-0.013645
-0.018991
-0.024287
-0.029099
-0.033519
-0.037319
-0.040637
-0.042973
-0.045173
-0.046738
-0.047915
-0.049341
-0.050382
-0.051097
-0.051816
-0.052704
-0.052914
-0.053314
-0.053581
-0.053844
-0.053467
-0.053756
-0.053859
-0.053947
-0.054052
-0.054109
-0.053835
-0.053805
-0.053646
-0.053166
-0.052791
-0.052355
-0.051984
-0.051512
-0.051279
-0.051131
-0.051087
-0.050919
-0.050898
-0.051181
-0.051251
-0.051637
-0.051992
-0.052713
-0.053506
-0.05448
-0.055744
-0.056992
-0.058902
-0.060814
-0.062971
-0.06521
-0.067659
-0.069745
-0.071993
-0.074475
-0.076238
-0.07774
-0.079212
-0.080005
-0.080176
-0.080205
-0.07949
-0.078232
-0.07722
-0.075971
-0.074745
-0.073278
-0.071766
-0.070678
-0.069927
-0.069079
-0.068267
-0.068233
-0.068226
-0.068327
-0.068844
-0.070163
-0.070884
-0.072972
-0.075321
-0.077822
-0.081105
-0.084677
-0.088327
-0.092232
-0.095687
-0.099289
-0.1027
-0.10581
-0.10889
-0.11171
-0.11453
-0.11711
-0.11938
-0.12189
-0.12444
-0.12654
-0.12906
-0.13162
-0.13411
-0.13694
-0.13989
-0.14271
-0.14553
-0.14824
-0.1509
-0.15322
-0.1553
-0.15702
-0.15908
-0.1612
-0.16357
-0.1664
-0.16912
-0.17229
-0.17569
-0.17922
-0.18223
-0.18544
-0.18807
-0.19022
-0.19229
-0.19395
-0.1952
-0.19622
-0.19671
-0.19673
-0.19607
-0.19445
-0.19217
-0.18916
-0.18555
-0.18118
-0.17606
-0.17071
-0.16522
-0.15937
-0.15385
-0.14774
-0.14239
-0.13718
-0.13244
-0.12791
-0.12403
-0.12045
-0.11757
-0.11506
-0.11308
-0.11138
-0.10966
-0.10845
-0.10661
-0.10483
-0.10307
-0.10039
-0.097585
-0.094639
-0.091109
-0.087559
-0.083915
-0.079953
-0.075802
-0.071527
-0.067016
-0.062219
-0.057215
-0.052459
-0.047236
-0.042274
-0.037815
-0.033329
-0.028774
-0.024937
-0.021109
-0.017173
-0.012972
-0.0084727
-0.0037769
0.0011243
0.0063911
0.012421
0.018266
0.024097
0.030318
0.036257
0.042121
0.047809
0.0534
0.05901
0.063978
0.069107
0.073904
0.07847
0.082722
0.087674
0.09238
0.097187
0.10191
0.10613
0.11021
0.11402
0.11777
0.12121
0.1247
0.12853
0.13219
0.13594
0.13949
0.14294
0.14626
0.14981
0.15278
0.15569
0.1581
0.15965
0.16109
0.16169
0.16166
0.1615
0.16068
0.15969
0.15901
0.15848
0.15801
0.15809
0.15866
0.1593
0.16035
0.16172
0.16264
0.16394
0.16486
0.16594
0.16645
0.16686
0.167
0.16658
0.166
0.16475
0.16281
0.16058
0.15747
0.1538
0.14961
0.14448
0.13961
0.1337
0.12811
0.12246
0.11752
0.11264
0.10864
0.10545
0.10315
0.10188
0.10153
0.10172
0.10289
0.10461
0.10661
0.10941
0.11236
0.11551
0.11905
0.12211
0.12482
0.1272
0.12943
0.13055
0.13169
0.13143
0.13109
0.12962
0.12757
0.12508
0.1217
0.1185
0.11518
0.11183
0.10855
0.10561
0.10293
0.10085
0.099185
0.098157
0.097775
0.09776
0.09804
0.098519
0.099166
0.10009
0.10149
0.103
0.1043
0.10612
0.10766
0.10914
0.1105
0.11184
0.11303
0.11373
0.11428
0.11461
0.11465
0.11437
0.11399
0.11357
0.11329
0.11295
0.11277
0.1129
0.1133
0.1138
0.11475
0.11579
0.11655
0.11781
0.11873
0.11958
0.12017
0.11991
0.11958
0.11855
0.11713
0.11523
0.11316
0.11074
0.10815
0.10588
0.10317
0.10068
0.097721
0.094823
0.092404
0.089162
0.086016
0.083295
0.080529
0.078134
0.075384
0.072726
0.070192
0.068176
0.066092
0.064273
0.063042
0.061996
0.061454
0.061549
0.061884
0.06249
0.063915
0.065441
0.067064
0.068878
0.070786
0.073032
0.075302
0.07749
0.07973
0.080897
0.082826
0.084141
0.084896
0.084869
0.084193
0.082791
0.080727
0.078791
0.075455
0.071639
0.06799
0.06405
0.060202
0.056322
0.052659
0.049036
0.045349
0.0425
0.039954
0.038422
0.037856
0.038601
0.040479
0.043326
0.047343
0.052006
0.057334
0.06315
0.069083
0.075369
0.080736
0.08615
0.091811
0.096721
0.10155
0.10585
0.10959
0.11286
0.11524
0.11706
0.11793
0.11814
0.11765
0.11625
0.11448
0.1125
0.10919
0.10574
0.10182
0.097066
0.092305
0.087407
0.082144
0.077313
0.072396
0.067815
0.063168
0.058646
0.054903
0.05142
0.048316
0.045969
0.044231
0.042886
0.042286
0.042618
0.043494
0.045089
0.047154
0.04973
0.052815
0.056501
0.060148
0.064003
0.068117
0.07173
0.075478
0.078694
0.080995
0.08355
0.085647
0.087452
0.088931
0.089405
0.089428
0.088753
0.087399
0.085535
0.083019
0.080269
0.076965
0.072818
0.068851
0.063995
0.059263
0.054672
0.050286
0.046253
0.042481
0.039807
0.037928
0.036554
0.035752
0.035587
0.035812
0.036444
0.037185
0.038121
0.039329
0.040855
0.042423
0.044063
0.045542
0.046882
0.048376
0.049767
0.050742
0.051345
0.052193
0.052447
0.053104
0.053282
0.053346
0.053253
0.053244
0.053445
0.053381
0.054013
0.05509
0.056461
0.058485
0.061004
0.064083
0.06724
0.070656
0.073936
0.077151
0.080112
0.082354
0.084401
0.085766
0.086621
0.086848
0.086425
0.08523
0.083428
0.081209
0.078924
0.075847
0.072394
0.068668
0.064998
0.061445
0.057927
0.055126
0.052494
0.050587
0.04909
0.047898
0.046836
0.046431
0.046392
0.046444
0.047481
0.04836
0.0497
0.051482
0.053762
0.056247
0.058991
0.061866
0.06442
0.066821
0.068958
0.07019
0.071002
0.071162
0.071158
0.070308
0.069249
0.06815
0.066888
0.065696
0.064086
0.062067
0.060324
0.058598
0.0567
0.054466
0.052599
0.051226
0.050019
0.048736
0.047846
0.047583
0.047104
0.047175
0.047298
0.047414
0.04828
0.0489
0.049942
0.051278
0.052724
0.054561
0.056274
0.057854
0.059331
0.060542
0.061114
0.061336
0.061024
0.060378
0.059325
0.058027
0.056234
0.055016
0.053476
0.051895
0.049998
0.048197
0.04612
0.043864
0.041539
0.040046
0.038425
0.037123
0.036267
0.036034
0.03597
0.036559
0.037312
0.038683
0.039875
0.041405
0.043248
0.045067
0.047022
0.048853
0.05048
0.051859
0.052909
0.05381
0.054044
0.053883
0.05313
0.052139
0.050446
0.04889
0.046564
0.04444
0.042024
0.039954
0.038243
0.036518
0.035228
0.034187
0.033588
0.033386
0.033604
0.034377
0.035301
0.036951
0.03827
0.040445
0.042398
0.044589
0.046631
0.048538
0.050126
0.051334
0.05221
0.0527
0.05287
0.052949
0.052571
0.052187
0.051502
0.050867
0.049983
0.049038
0.04789
0.046761
0.045911
0.045025
0.044354
0.043629
0.043053
0.042667
0.042978
0.04329
0.04411
0.044973
0.045538
0.046689
0.047844
0.04871
0.049448
0.050283
0.051189
0.051967
0.052387
0.05289
0.053276
0.053683
0.053706
0.053678
0.053666
0.053519
0.053071
0.052845
0.052827
0.05248
0.052338
0.052196
0.051887
0.051367
0.050928
0.050155
0.048955
0.047697
0.046266
0.044469
0.042664
0.040716
0.038921
0.037459
0.03637
0.035509
0.03514
0.03483
0.034877
0.035217
0.035818
0.036215
0.037122
0.038172
0.039922
0.041423
0.043266
0.045265
0.046599
0.047992
0.048846
0.048814
0.048438
0.047662
0.046183
0.043957
0.041628
0.038696
0.035613
0.032766
0.029757
0.02701
0.024865
0.023097
0.022153
0.021845
0.021966
0.022657
0.023739
0.025777
0.027776
0.030632
0.033873
0.037481
0.041604
0.045666
0.050128
0.054317
0.058705
0.062546
0.06578
0.068666
0.070987
0.073195
0.074631
0.075774
0.07684
0.077696
0.078351
0.07899
0.079429
0.079571
0.079741
0.07976
0.079808
0.079838
0.079566
0.0789
0.077822
0.075868
0.073356
0.070353
0.066473
0.061911
0.056307
0.050383
0.044038
0.037301
0.031136
0.024734
0.018956
0.01337
0.0085514
0.0045303
0.0013472
-0.0010968
-0.0027076
-0.0034104
-0.0036509
-0.0027619
-0.00087803
0.0020285
0.00544
0.0094407
0.013898
0.018028
0.022177
0.026242
0.029884
0.033217
0.035944
0.038184
0.040127
0.040888
0.041252
0.041459
0.04083
0.039927
0.038707
0.037365
0.036159
0.03482
0.033499
0.032522
0.031878
0.031549
0.032041
0.032572
0.033754
0.034839
0.036549
0.038355
0.040436
0.04253
0.045012
0.047773
0.05016
0.053049
0.055931
0.058883
0.06147
0.063832
0.066155
0.068208
0.069753
0.070992
0.072043
0.072742
0.073375
0.073322
0.072912
0.072368
0.070774
0.068554
0.06518
0.06109
0.055904
0.04965
0.042939
0.035787
0.028344
0.021011
0.014212
0.0077103
0.0021452
-0.0025711
-0.0066898
-0.0095018
-0.011371
-0.011756
-0.011248
-0.0095004
-0.0066436
-0.0027183
0.0021648
0.0080962
0.01494
0.022476
0.029982
0.037505
0.04509
0.052097
0.05837
0.063433
0.067492
0.070066
0.071175
0.070703
0.068812
0.065674
0.06126
0.056143
0.050363
0.044208
0.037614
0.031129
0.02502
0.019022
0.013737
0.0089713
0.0053758
0.0026914
0.0010231
0.00067942
0.0013312
0.0028092
0.0054613
0.0089208
0.012677
0.016877
0.021388
0.025391
0.028821
0.031747
0.033639
0.034691
0.034677
0.033546
0.031324
0.028535
0.025064
0.021079
0.016512
0.011749
0.0066832
0.0012887
-0.004389
-0.0096539
-0.014965
-0.019876
-0.023937
-0.027353
-0.029895
-0.031177
-0.031624
-0.030718
-0.028418
-0.025223
-0.020377
-0.01533
-0.00914
-0.0029466
0.0035396
0.010284
0.016219
0.022102
0.02704
0.031667
0.035805
0.039383
0.042552
0.044943
0.04734
0.049038
0.050039
0.050342
0.050309
0.049098
0.04718
0.044811
0.042316
0.039099
0.036106
0.032809
0.029661
0.02696
0.024087
0.022037
0.020321
0.019278
0.01883
0.018613
0.019604
0.020573
0.021623
0.023292
0.025203
0.027224
0.029659
0.032313
0.03514
0.038265
0.041347
0.044618
0.047546
0.05078
0.053941
0.056932
0.059684
0.062253
0.065079
0.067658
0.069411
0.070509
0.070613
0.069453
0.066965
0.063574
0.057815
0.050876
0.042485
0.032218
0.021032
0.0085443
-0.004907
-0.019128
-0.034203
-0.049365
-0.064607
-0.079721
-0.09451
-0.10801
-0.11971
-0.12965
-0.13707
-0.14159
-0.14261
-0.13915
-0.13151
-0.11906
-0.10187
-0.080488
-0.055221
-0.026537
0.0036244
0.035785
0.068986
0.10313
0.13848
0.17428
0.21006
0.24606
0.28189
0.31745
0.35171
0.38467
0.41584
0.4445
0.4705
0.49324
0.51229
0.52764
0.53819
0.5447
0.54649
0.54322
0.53529
0.5228
0.50604
0.48509
0.46036
0.43171
0.39974
0.36491
0.32754
0.28819
0.2471
0.2047
0.16228
0.12019
0.079834
0.041889
0.0064804
-0.02512
-0.053036
-0.07648
-0.095122
-0.10916
-0.11862
-0.12406
-0.12521
-0.12247
-0.11644
-0.10826
-0.097873
-0.086062
-0.073762
-0.060628
-0.047951
-0.036151
-0.025183
-0.016246
-0.0086543
-0.0028828
0.00067815
0.0023819
0.0020635
0.00045728
-0.0024231
-0.0067173
-0.011856
-0.017553
-0.023503
-0.029217
-0.034471
-0.039683
-0.043791
-0.047127
-0.049256
-0.050395
-0.050163
-0.048566
-0.045847
-0.041791
-0.036974
-0.031346
-0.024996
-0.018374
-0.012097
-0.0059435
-0.00052946
0.0039988
0.0076228
0.010529
0.011656
0.011638
0.010087
0.0078985
0.0045502
0.00050457
-0.0037213
-0.0084273
-0.013524
-0.018566
-0.023194
-0.02792
-0.032032
-0.035397
-0.038133
-0.040285
-0.041562
-0.042272
-0.042338
-0.041828
-0.041118
-0.039795
-0.038229
-0.036374
-0.034479
-0.032212
-0.030631
-0.029138
-0.028498
-0.028299
-0.028222
-0.028816
-0.029366
-0.030277
-0.031054
-0.03186
-0.03259
-0.033308
-0.034377
-0.035168
-0.03651
-0.037369
-0.038702
-0.040075
-0.041362
-0.042145
-0.042472
-0.042499
-0.042083
-0.041772
-0.04104
-0.040025
-0.038988
-0.038193
-0.037896
-0.037425
-0.0374
-0.037344
-0.036932
-0.036513
-0.03579
-0.034667
-0.033142
-0.031541
-0.029978
-0.028326
-0.026916
-0.025499
-0.02411
-0.023408
-0.022879
-0.022358
-0.022248
-0.022789
-0.023695
-0.024994
-0.026273
-0.027614
-0.029561
-0.031474
-0.033116
-0.03506
-0.036982
-0.039287
-0.041859
-0.044528
-0.04718
-0.050546
-0.054098
-0.057463
-0.060948
-0.064327
-0.067246
-0.069862
-0.072144
-0.074249
-0.075751
-0.076977
-0.078053
-0.079213
-0.080275
-0.081181
-0.082099
-0.083315
-0.084701
-0.085688
-0.086907
-0.088764
-0.090165
-0.091827
-0.093183
-0.094889
-0.096092
-0.097281
-0.098242
-0.099262
-0.10001
-0.10079
-0.10168
-0.10284
-0.104
-0.10546
-0.10657
-0.10778
-0.10891
-0.10977
-0.11057
-0.11114
-0.11205
-0.11292
-0.11396
-0.11506
-0.11624
-0.11816
-0.11954
-0.12101
-0.12296
-0.12481
-0.12646
-0.12843
-0.13034
-0.13206
-0.13364
-0.13518
-0.13638
-0.13796
-0.13923
-0.14049
-0.14209
-0.14387
-0.14579
-0.14817
-0.15074
-0.15372
-0.15686
-0.16034
-0.16428
-0.16837
-0.17312
-0.17772
-0.18232
-0.18744
-0.19196
-0.19691
-0.2015
-0.20528
-0.2092
-0.21218
-0.21467
-0.21662
-0.21804
-0.21848
-0.21824
-0.21777
-0.21644
-0.21495
-0.21284
-0.21078
-0.20822
-0.20555
-0.20272
-0.19949
-0.19645
-0.19234
-0.18899
-0.18509
-0.18165
-0.17857
-0.17579
-0.17383
-0.17213
-0.17073
-0.16979
-0.16878
-0.168
-0.16714
-0.16564
-0.16426
-0.16278
-0.16084
-0.15904
-0.1569
-0.15431
-0.15057
-0.14657
-0.14124
-0.13486
-0.12762
-0.11952
-0.10997
-0.099912
-0.08889
-0.077631
-0.065834
-0.054
-0.042456
-0.030747
-0.019611
-0.0087376
0.0014461
0.011016
0.019903
0.028533
0.03583
0.042341
0.048034
0.052493
0.055927
0.058338
0.060432
0.061663
0.062405
0.062675
0.063114
0.063338
0.06388
0.064129
0.064657
0.065502
0.066352
0.067539
0.069122
0.070744
0.072745
0.074563
0.077282
0.079519
0.081276
0.083841
0.086265
0.088556
0.090492
0.092207
0.094253
0.096088
0.097798
0.099823
0.10178
0.10417
0.10636
0.10886
0.11161
0.11388
0.11654
0.11897
0.12139
0.12399
0.12689
0.12998
0.13314
0.13679
0.14079
0.14501
0.14935
0.15336
0.15754
0.16135
0.16417
0.16675
0.16863
0.16953
0.17044
0.17087
0.17045
0.16996
0.16921
0.16815
0.16642
0.16503
0.16326
0.16136
0.15968
0.158
0.15617
0.15487
0.15372
0.15321
0.15204
0.1516
0.1507
0.15005
0.14903
0.14795
0.14667
0.14517
0.14389
0.14236
0.14083
0.13899
0.13702
0.13467
0.13198
0.12855
0.12497
0.12109
0.1169
0.11254
0.10811
0.10415
0.10094
0.098326
0.096047
0.094672
0.094024
0.09383
0.094027
0.094889
0.096466
0.098083
0.099973
0.10226
0.10469
0.10718
0.10963
0.11197
0.11414
0.11604
0.11745
0.11867
0.1188
0.11855
0.11688
0.11466
0.11167
0.1076
0.10372
0.098975
0.094306
0.089603
0.084911
0.080524
0.076906
0.073451
0.070452
0.06851
0.067227
0.067137
0.0675
0.06883
0.07043
0.073161
0.075892
0.079103
0.081934
0.085555
0.08953
0.092958
0.09642
0.099623
0.10254
0.10511
0.10671
0.10796
0.10857
0.10883
0.10827
0.10765
0.10649
0.10541
0.10363
0.10214
0.10035
0.098822
0.097172
0.095798
0.094909
0.094075
0.094133
0.094456
0.09487
0.095467
0.096103
0.096425
0.09675
0.096776
0.096589
0.096264
0.094985
0.093981
0.091906
0.089555
0.086649
0.083609
0.08039
0.07706
0.073299
0.069376
0.066185
0.062574
0.059756
0.057439
0.055128
0.053738
0.053029
0.05312
0.054136
0.055535
0.057798
0.060819
0.064116
0.06793
0.071116
0.073866
0.076232
0.078744
0.079862
0.080076
0.080555
0.080512
0.080266
0.079865
0.078342
0.076014
0.073521
0.070253
0.066825
0.062997
0.059146
0.055306
0.051954
0.049525
0.047602
0.04603
0.045399
0.045439
0.046183
0.046891
0.047932
0.049246
0.050753
0.05256
0.054389
0.056156
0.058447
0.060665
0.062867
0.065195
0.067898
0.070279
0.07294
0.075805
0.078447
0.080773
0.082912
0.084979
0.086845
0.088163
0.089303
0.090196
0.090696
0.090972
0.091316
0.091172
0.09112
0.090668
0.090062
0.089068
0.087941
0.086379
0.084734
0.0828
0.080774
0.078338
0.075188
0.071837
0.06785
0.063982
0.060459
0.056685
0.053623
0.050606
0.048059
0.045944
0.044464
0.042886
0.041884
0.041367
0.041336
0.041968
0.042711
0.044409
0.046031
0.048527
0.051041
0.053862
0.056699
0.059562
0.062213
0.064291
0.066324
0.067704
0.068418
0.06859
0.068164
0.067145
0.0655
0.063293
0.060758
0.057885
0.055128
0.052251
0.049746
0.047624
0.045882
0.044755
0.0441
0.044443
0.045724
0.04781
0.050733
0.053966
0.057631
0.061161
0.064553
0.067991
0.070667
0.073176
0.075131
0.076355
0.077177
0.076958
0.076347
0.074716
0.072969
0.070207
0.067307
0.064217
0.060761
0.057084
0.053081
0.049596
0.04607
0.042958
0.040395
0.038535
0.037408
0.036865
0.037262
0.037877
0.039361
0.041051
0.042906
0.045292
0.047587
0.049773
0.051747
0.053984
0.056217
0.058694
0.060906
0.062994
0.06493
0.066655
0.068002
0.069246
0.069908
0.070277
0.070543
0.069909
0.069284
0.068467
0.067165
0.066014
0.065108
0.064156
0.062995
0.062351
0.061565
0.060475
0.059304
0.057542
0.05598
0.054248
0.0521
0.050168
0.04828
0.046356
0.044797
0.043236
0.041886
0.040719
0.039596
0.039246
0.0386
0.038331
0.038436
0.039042
0.039659
0.040646
0.041902
0.04336
0.044884
0.046039
0.047572
0.048854
0.050222
0.051426
0.052552
0.053665
0.054318
0.054409
0.054049
0.053504
0.052466
0.051056
0.049087
0.047082
0.044874
0.042205
0.039739
0.036947
0.034871
0.032937
0.031707
0.031235
0.031092
0.031739
0.033473
0.035861
0.03862
0.041978
0.045913
0.050288
0.05475
0.059235
0.06354
0.067651
0.07164
0.075102
0.07804
0.079964
0.081022
0.081892
0.081336
0.080745
0.079528
0.077717
0.074959
0.071707
0.068308
0.064316
0.060355
0.056246
0.052158
0.048142
0.044257
0.041185
0.038382
0.035694
0.033916
0.032371
0.031143
0.030854
0.030649
0.031145
0.032229
0.033843
0.035695
0.037748
0.040056
0.042038
0.044211
0.04661
0.049032
0.05135
0.053696
0.056236
0.058424
0.060583
0.061963
0.063138
0.064057
0.0641
0.064076
0.063326
0.062123
0.060714
0.058608
0.056484
0.053904
0.051036
0.047835
0.044632
0.041436
0.038257
0.035055
0.032139
0.029486
0.026953
0.025099
0.023399
0.021946
0.020867
0.020317
0.020143
0.020308
0.020486
0.021147
0.022057
0.023472
0.025302
0.026771
0.028871
0.03169
0.034014
0.036921
0.039993
0.042957
0.046408
0.049836
0.053297
0.056462
0.059769
0.062686
0.065538
0.067718
0.069637
0.070756
0.070818
0.07045
0.069254
0.067322
0.064713
0.061466
0.057799
0.053786
0.049561
0.045327
0.040782
0.036604
0.032444
0.028445
0.024814
0.021566
0.0183
0.015791
0.014032
0.012562
0.012271
0.012689
0.013407
0.014933
0.016784
0.018481
0.020625
0.022602
0.024403
0.025871
0.027195
0.028601
0.029902
0.031092
0.032288
0.033555
0.03477
0.036044
0.036909
0.038093
0.039347
0.040161
0.041262
0.041882
0.042905
0.04391
0.044693
0.045237
0.045979
0.046346
0.046768
0.046843
0.046806
0.046647
0.045887
0.044742
0.04318
0.04175
0.040456
0.038914
0.037792
0.037179
0.036826
0.037226
0.038259
0.039498
0.040529
0.041891
0.043408
0.044959
0.046269
0.047644
0.048841
0.049756
0.05021
0.05032
0.050513
0.04993
0.048587
0.046892
0.044662
0.041973
0.039329
0.036464
0.033237
0.030055
0.026721
0.023775
0.020754
0.017804
0.015564
0.013439
0.01195
0.011582
0.01113
0.011896
0.013498
0.015535
0.018256
0.021738
0.025183
0.028599
0.032224
0.035219
0.038528
0.040966
0.042896
0.044689
0.045655
0.045985
0.045651
0.044672
0.043032
0.040901
0.038479
0.035526
0.032766
0.029816
0.026796
0.024257
0.021779
0.020021
0.018515
0.017453
0.017005
0.017198
0.017571
0.018011
0.01874
0.020076
0.021197
0.022551
0.024291
0.025747
0.027547
0.029362
0.030771
0.031691
0.032516
0.0326
0.032645
0.032199
0.031578
0.030749
0.029802
0.029053
0.027987
0.027786
0.027661
0.028038
0.028787
0.030106
0.031503
0.032656
0.034425
0.035736
0.037164
0.038205
0.039076
0.039701
0.040387
0.040674
0.040313
0.040015
0.039561
0.038501
0.037498
0.036183
0.034843
0.032956
0.030785
0.028376
0.02634
0.024208
0.022782
0.021962
0.0214
0.02211
0.023323
0.025206
0.027254
0.029976
0.032934
0.035815
0.038422
0.041217
0.043811
0.045787
0.047657
0.049196
0.050414
0.05145
0.052002
0.052212
0.051934
0.051512
0.050568
0.048859
0.046851
0.044186
0.040633
0.036839
0.031997
0.026908
0.021736
0.016509
0.011281
0.0060208
0.0012541
-0.0033698
-0.0074395
-0.011674
-0.015154
-0.018212
-0.020838
-0.022596
-0.024244
-0.02521
-0.02557
-0.025611
-0.024823
-0.02381
-0.022694
-0.021257
-0.019273
-0.017384
-0.015534
-0.013343
-0.01148
-0.0089885
-0.0066472
-0.0041818
-0.0016437
0.00066272
0.002422
0.0044455
0.0058056
0.0067852
0.0071621
0.0072144
0.0068983
0.0063173
0.0058793
0.0052764
0.0046161
0.0041989
0.0037849
0.0035057
0.0036189
0.0035244
0.0040033
0.0042522
0.0044731
0.0052105
0.0056698
0.0064334
0.0075671
0.0087605
0.01046
0.012261
0.014697
0.017353
0.020475
0.023645
0.027659
0.031354
0.035228
0.03929
0.043167
0.046728
0.049847
0.052139
0.053904
0.054626
0.054671
0.053754
0.051962
0.049233
0.046241
0.042554
0.038345
0.034595
0.030843
0.027336
0.024041
0.020966
0.018574
0.016477
0.014913
0.014461
0.014031
0.014682
0.015925
0.017453
0.019119
0.020383
0.021535
0.021264
0.02041
0.018042
0.014371
0.009883
0.0038973
-0.0028034
-0.010555
-0.019303
-0.028888
-0.039593
-0.050468
-0.062476
-0.074087
-0.085293
-0.095396
-0.10395
-0.10964
-0.11273
-0.11232
-0.10792
-0.099489
-0.0868
-0.07101
-0.052453
-0.031757
-0.0088114
0.014617
0.040071
0.067049
0.094918
0.12452
0.15487
0.18606
0.21819
0.25031
0.28267
0.31445
0.34467
0.37401
0.40106
0.4258
0.44774
0.46644
0.48097
0.49175
0.49818
0.49979
0.49717
0.48975
0.47788
0.46135
0.44051
0.41541
0.38629
0.3538
0.31801
0.27985
0.23956
0.19815
0.15666
0.11546
0.076318
0.039024
0.004368
-0.026947
-0.054754
-0.078236
-0.097542
-0.11234
-0.12294
-0.12885
-0.1309
-0.12871
-0.12371
-0.11585
-0.10555
-0.093795
-0.080982
-0.067239
-0.054106
-0.040837
-0.028619
-0.017266
-0.0066595
0.0023802
0.010494
0.017504
0.022677
0.026826
0.029599
0.030834
0.031078
0.029367
0.026832
0.023058
0.018638
0.013082
0.0065936
8.62E-05
-0.0070332
-0.013827
-0.020718
-0.027096
-0.033198
-0.038438
-0.043065
-0.047109
-0.050201
-0.05293
-0.054338
-0.055088
-0.055111
-0.054415
-0.053344
-0.051737
-0.049625
-0.047524
-0.045138
-0.042678
-0.040064
-0.037286
-0.034767
-0.032064
-0.029765
-0.027437
-0.025401
-0.023396
-0.022014
-0.020921
-0.019981
-0.019711
-0.019622
-0.019894
-0.020321
-0.020736
-0.021243
-0.021637
-0.022047
-0.022062
-0.022177
-0.022603
-0.022721
-0.022747
-0.022943
-0.023394
-0.02387
-0.024274
-0.025258
-0.026277
-0.027246
-0.028524
-0.029309
-0.029972
-0.030791
-0.031207
-0.031585
-0.031472
-0.031863
-0.032136
-0.032665
-0.03358
-0.034737
-0.036061
-0.037781
-0.039273
-0.04075
-0.04183
-0.043253
-0.043886
-0.044701
-0.045496
-0.046125
-0.046875
-0.047949
-0.049303
-0.050171
-0.051311
-0.052504
-0.053336
-0.054194
-0.054867
-0.055149
-0.055713
-0.055766
-0.05616
-0.055989
-0.055935
-0.055669
-0.055398
-0.055151
-0.054582
-0.054228
-0.053414
-0.052693
-0.051817
-0.050893
-0.04967
-0.048455
-0.047308
-0.046335
-0.045321
-0.044453
-0.04385
-0.043414
-0.043596
-0.043758
-0.044892
-0.045907
-0.047969
-0.050859
-0.053964
-0.057864
-0.062376
-0.067436
-0.072227
-0.077186
-0.082211
-0.087435
-0.091894
-0.096953
-0.10114
-0.1054
-0.10945
-0.11243
-0.11513
-0.11706
-0.11843
-0.11914
-0.11921
-0.11864
-0.11707
-0.11568
-0.11375
-0.11136
-0.10897
-0.10678
-0.10433
-0.10212
-0.1003
-0.098755
-0.097613
-0.096839
-0.096979
-0.097501
-0.098001
-0.099329
-0.1007
-0.10201
-0.10382
-0.10547
-0.10703
-0.10885
-0.11029
-0.11199
-0.11393
-0.11584
-0.1182
-0.12103
-0.12448
-0.12801
-0.13193
-0.13597
-0.14031
-0.14477
-0.14923
-0.15387
-0.15856
-0.16316
-0.16804
-0.17293
-0.17749
-0.18265
-0.18714
-0.19192
-0.19563
-0.19938
-0.20271
-0.20549
-0.20778
-0.20919
-0.21039
-0.21075
-0.21091
-0.21033
-0.20976
-0.20887
-0.20803
-0.20684
-0.20505
-0.20333
-0.20153
-0.19896
-0.19648
-0.19387
-0.191
-0.18828
-0.18545
-0.18289
-0.18026
-0.17835
-0.17647
-0.17527
-0.17397
-0.1728
-0.17207
-0.17091
-0.1697
-0.16844
-0.16678
-0.16465
-0.16236
-0.15971
-0.15642
-0.15277
-0.14817
-0.14276
-0.1369
-0.13008
-0.12309
-0.11552
-0.10719
-0.098777
-0.090248
-0.08181
-0.073663
-0.065092
-0.056929
-0.048857
-0.040901
-0.03355
-0.026705
-0.020427
-0.015305
-0.01114
-0.0074916
-0.0044086
-0.002288
-0.00056803
0.0011268
0.0028124
0.0050772
0.0067874
0.0092379
0.011304
0.013805
0.016544
0.019338
0.022466
0.025981
0.029588
0.033229
0.037406
0.042095
0.047009
0.051604
0.056871
0.061728
0.067166
0.072521
0.077285
0.082275
0.087228
0.092353
0.097707
0.10331
0.1081
0.11283
0.11783
0.12259
0.12669
0.13041
0.1339
0.13644
0.13853
0.14022
0.14096
0.14185
0.14107
0.14033
0.13932
0.13791
0.13607
0.13396
0.13156
0.1289
0.12616
0.12359
0.12092
0.11842
0.11625
0.11472
0.11429
0.11412
0.11491
0.11634
0.11831
0.12094
0.12419
0.12696
0.13023
0.13366
0.13705
0.14035
0.14355
0.14671
0.14963
0.15205
0.15423
0.1553
0.15622
0.15588
0.15473
0.1526
0.14925
0.14548
0.1412
0.13656
0.13153
0.12683
0.12245
0.1183
0.1143
0.11117
0.10868
0.10664
0.1056
0.10511
0.10595
0.10784
0.11007
0.11321
0.11707
0.12158
0.12625
0.13127
0.13582
0.14014
0.14384
0.14641
0.14828
0.14898
0.14856
0.14791
0.14516
0.14205
0.13812
0.13306
0.12741
0.12129
0.11506
0.10806
0.10158
0.095622
0.090025
0.085022
0.080909
0.078473
0.075923
0.07431
0.07315
0.072758
0.072649
0.073307
0.07448
0.075544
0.076822
0.078698
0.079835
0.080563
0.081903
0.083147
0.084083
0.084869
0.085678
0.08666
0.087658
0.0885
0.089691
0.090527
0.091729
0.092619
0.093432
0.094094
0.094847
0.095783
0.096563
0.09699
0.097181
0.097014
0.09659
0.096075
0.094699
0.093367
0.091381
0.089112
0.086598
0.083414
0.080681
0.078489
0.075707
0.073238
0.071418
0.070484
0.069744
0.070299
0.07129
0.073031
0.0758
0.07899
0.082179
0.086129
0.089978
0.093479
0.097183
0.10033
0.10275
0.10461
0.10591
0.10636
0.10592
0.10476
0.1024
0.099657
0.095879
0.091428
0.086278
0.081168
0.076045
0.070115
0.064825
0.059796
0.055298
0.051403
0.048266
0.046113
0.045008
0.04454
0.045109
0.046087
0.047802
0.049814
0.052468
0.055321
0.058251
0.061413
0.06431
0.067014
0.069473
0.071632
0.07366
0.075014
0.076124
0.076681
0.076952
0.077035
0.076509
0.076095
0.075314
0.074216
0.073228
0.072215
0.071217
0.069944
0.068739
0.066907
0.064787
0.062678
0.060181
0.057605
0.055207
0.053323
0.051444
0.050254
0.049476
0.049092
0.048986
0.049778
0.051025
0.053177
0.056097
0.05947
0.063624
0.068302
0.073075
0.078025
0.082679
0.087683
0.092601
0.097405
0.10164
0.10525
0.10817
0.11035
0.1117
0.11186
0.11146
0.11003
0.10777
0.10479
0.10104
0.0964
0.091199
0.085792
0.079839
0.073924
0.067797
0.061502
0.055833
0.050498
0.045731
0.041451
0.037948
0.034968
0.032703
0.031462
0.031077
0.031334
0.032406
0.033954
0.036121
0.038891
0.041623
0.04482
0.048421
0.051843
0.055696
0.058898
0.061951
0.064599
0.06662
0.067547
0.067853
0.067189
0.065714
0.063936
0.061343
0.058641
0.054924
0.051522
0.047838
0.044373
0.04117
0.038354
0.035947
0.033913
0.032731
0.032166
0.0323
0.033871
0.035631
0.038294
0.041895
0.045845
0.050469
0.055179
0.060309
0.065749
0.070768
0.075796
0.080376
0.08438
0.088359
0.091778
0.094407
0.096412
0.097622
0.098251
0.097991
0.097092
0.09563
0.093604
0.090985
0.088092
0.08466
0.081296
0.077676
0.073214
0.0687
0.064004
0.059169
0.05433
0.049772
0.045264
0.04139
0.037969
0.034858
0.032016
0.029916
0.027669
0.02596
0.024488
0.023087
0.022212
0.021725
0.021417
0.021053
0.020929
0.020627
0.020605
0.020675
0.021163
0.021523
0.022446
0.023855
0.025938
0.027719
0.030022
0.032079
0.034432
0.036964
0.039187
0.041716
0.043978
0.04653
0.049004
0.051725
0.054853
0.057464
0.060635
0.06338
0.065658
0.067974
0.069813
0.071282
0.072889
0.074192
0.075041
0.075669
0.076321
0.076891
0.077552
0.077984
0.078221
0.07844
0.078298
0.078438
0.078075
0.077091
0.075875
0.073805
0.071308
0.068184
0.064546
0.060921
0.056959
0.052995
0.049441
0.046263
0.043425
0.040966
0.039307
0.038174
0.037456
0.037436
0.038138
0.038833
0.040332
0.041771
0.04332
0.044984
0.046297
0.047222
0.048183
0.048373
0.048252
0.047045
0.045727
0.043589
0.041047
0.038321
0.034868
0.031592
0.027691
0.023897
0.02024
0.016551
0.013504
0.011188
0.0097826
0.0091779
0.0099276
0.011447
0.013893
0.017563
0.021806
0.026919
0.032378
0.03865
0.0448
0.050693
0.056711
0.062327
0.067666
0.072276
0.076805
0.08045
0.083662
0.086524
0.088362
0.089492
0.089677
0.089057
0.087942
0.086026
0.083434
0.080917
0.07856
0.075172
0.071983
0.06863
0.064959
0.061099
0.057188
0.053683
0.05039
0.047174
0.044673
0.042407
0.040745
0.039359
0.037929
0.036657
0.035597
0.034291
0.032971
0.031513
0.029997
0.028549
0.027455
0.026246
0.025531
0.025064
0.024592
0.024011
0.02374
0.023321
0.022785
0.022561
0.021941
0.021913
0.022303
0.022835
0.023865
0.025394
0.027249
0.029262
0.03128
0.033318
0.035289
0.036913
0.03854
0.039963
0.041138
0.042091
0.042877
0.043787
0.044901
0.045527
0.045982
0.046893
0.047604
0.048345
0.049414
0.049901
0.050317
0.050625
0.050346
0.050131
0.049478
0.049001
0.048415
0.048216
0.048209
0.048747
0.049611
0.050436
0.051654
0.053211
0.054653
0.055736
0.056953
0.057851
0.05859
0.059138
0.059089
0.058939
0.058575
0.05802
0.056714
0.055053
0.052824
0.04984
0.046759
0.043191
0.038991
0.034985
0.030765
0.026419
