ECG
0.4186
0.83012
0.73493
0.79262
0.76343
0.78836
0.77771
0.78874
0.78581
0.78942
0.78874
0.7885
0.78744
0.78572
0.78306
0.78018
0.77646
0.77231
0.76752
0.7625
0.75749
0.7521
0.74707
0.74174
0.73652
0.73179
0.727
0.72275
0.71869
0.7155
0.71286
0.71073
0.70948
0.70851
0.70798
0.70791
0.70834
0.70888
0.70977
0.71145
0.71281
0.71495
0.71713
0.71935
0.72149
0.7236
0.7254
0.7266
0.72746
0.72747
0.72637
0.72448
0.72102
0.71638
0.71018
0.7026
0.69398
0.68346
0.67165
0.65791
0.64265
0.62575
0.60577
0.58377
0.55847
0.53052
0.49918
0.46537
0.42865
0.38904
0.34702
0.30262
0.25609
0.20731
0.15737
0.10593
0.05507
0.0055255
-0.040962
-0.082231
-0.11697
-0.14455
-0.16331
-0.1729
-0.17259
-0.16062
-0.13577
-0.09566
-0.038972
0.035496
0.12833
0.24107
0.37279
0.5212
0.68406
0.85837
1.0403
1.2273
1.4166
1.6053
1.7904
1.9695
2.1394
2.2966
2.439
2.5624
2.6655
2.746
2.8016
2.8325
2.8373
2.8169
2.7721
2.7048
2.617
2.5113
2.3902
2.2572
2.1154
1.9675
1.817
1.6665
1.5186
1.3758
1.2398
1.1125
0.99541
0.88943
0.79498
0.71193
0.64073
0.58092
0.53187
0.49224
0.46209
0.4394
0.42313
0.41267
0.40652
0.40423
0.40444
0.40661
0.40925
0.41284
0.41613
0.41868
0.42077
0.42157
0.42141
0.42028
0.41763
0.41369
0.40863
0.40273
0.39576
0.38849
0.38074
0.3724
0.36446
0.35628
0.34814
0.34063
0.33363
0.32724
0.32155
0.31729
0.31339
0.31071
0.30871
0.30798
0.30743
0.30814
0.30891
0.31029
0.31209
0.31416
0.31674
0.31935
0.32183
0.32429
0.32647
0.32848
0.32991
0.33099
0.33153
0.33126
0.33043
0.3292
0.32702
0.3247
0.32216
0.31921
0.31674
0.31442
0.31229
0.31046
0.3087
0.30726
0.30562
0.30352
0.30165
0.29971
0.29733
0.29501
0.29233
0.28996
0.28713
0.28479
0.28183
0.27915
0.27672
0.27417
0.27168
0.2693
0.26721
0.26562
0.26389
0.26265
0.26185
0.26091
0.26016
0.25952
0.25913
0.25819
0.25734
0.25602
0.25492
0.25281
0.25067
0.24761
0.24439
0.24035
0.23608
0.23161
0.22668
0.22232
0.21763
0.21315
0.20914
0.20516
0.20138
0.19835
0.19581
0.19364
0.19256
0.19182
0.19213
0.19282
0.19408
0.19551
0.19715
0.19838
0.19943
0.2001
0.20011
0.19907
0.19753
0.19483
0.1914
0.18713
0.18235
0.17701
0.17104
0.16474
0.15789
0.1509
0.14381
0.13654
0.12944
0.12251
0.11585
0.10985
0.10429
0.099073
0.094454
0.090246
0.086477
0.082981
0.080081
0.078012
0.075651
0.07347
0.071395
0.069708
0.067872
0.066171
0.06437
0.062626
0.060981
0.059537
0.058225
0.057051
0.056462
0.056231
0.055926
0.055895
0.056305
0.056852
0.058008
0.059529
0.060936
0.063096
0.065405
0.067742
0.070634
0.073468
0.076817
0.079879
0.083046
0.086925
0.091034
0.095468
0.099664
0.1046
0.10931
0.1147
0.12013
0.12594
0.13217
0.13894
0.14632
0.15408
0.16266
0.17182
0.18098
0.19097
0.20138
0.21194
0.22296
0.23403
0.24561
0.25718
0.26888
0.28075
0.29247
0.30447
0.31659
0.32904
0.34138
0.35436
0.36779
0.38149
0.39543
0.40995
0.4251
0.43999
0.4555
0.47135
0.48708
0.50248
0.51816
0.53367
0.54894
0.5645
0.57993
0.59507
0.61023
0.62519
0.63947
0.6533
0.66687
0.67987
0.69232
0.70429
0.71605
0.72774
0.7389
0.75007
0.76096
0.77168
0.7819
0.79214
0.80232
0.8117
0.82102
0.82979
0.83827
0.84576
0.85249
0.85882
0.86471
0.87035
0.87524
0.88019
0.88487
0.88886
0.89246
0.89553
0.8981
0.90049
0.90222
0.90419
0.90578
0.9078
0.91015
0.91266
0.91533
0.91808
0.92031
0.92231
0.92442
0.92589
0.92746
0.92919
0.9305
0.93158
0.93274
0.93318
0.93343
0.93336
0.93267
0.9316
0.93019
0.92834
0.92621
0.92378
0.92114
0.91837
0.91555
0.9123
0.90921
0.90564
0.90216
0.89849
0.89513
0.89167
0.88812
0.88455
0.88116
0.87738
0.87377
0.87075
0.8679
0.86563
0.8636
0.86207
0.86075
0.85964
0.85854
0.85762
0.85658
0.85596
0.85522
0.85461
0.85407
0.85353
0.85329
0.85308
0.85269
0.85204
0.85147
0.85066
0.84947
0.84819
0.84653
0.84497
0.84286
0.84118
0.83936
0.83721
0.83531
0.83349
0.83184
0.82998
0.82816
0.82613
0.82419
0.82174
0.81918
0.81664
0.81391
0.81087
0.80733
0.80379
0.79997
0.79621
0.79279
0.78971
0.78637
0.78363
0.78137
0.77923
0.77761
0.77607
0.77568
0.77564
0.77657
0.77818
0.78063
0.7839
0.78765
0.79188
0.79656
0.80125
0.80617
0.81107
0.81561
0.82051
0.82447
0.82798
0.83082
0.83323
0.83528
0.83687
0.83796
0.83827
0.83841
0.83809
0.83746
0.83671
0.83512
0.83364
0.83166
0.83013
0.82837
0.8266
0.82513
0.82375
0.82291
0.82184
0.82111
0.82005
0.81897
0.8179
0.81649
0.81498
0.81346
0.81216
0.81052
0.80905
0.80781
0.80641
0.8051
0.80391
0.80318
0.80266
0.80216
0.80213
0.80211
0.80218
0.8023
0.80249
0.80298
0.80359
0.80424
0.80482
0.80573
0.80622
0.80672
0.80733
0.80719
0.80744
0.80723
0.80687
0.80652
0.80574
0.80529
0.80522
0.80515
0.80521
0.80529
0.8051
0.80526
0.80537
0.80516
0.8059
0.80619
0.80718
0.80784
0.80854
0.80957
0.81044
0.81137
0.81213
0.81256
0.81247
0.81227
0.81186
0.81147
0.8104
0.80928
0.80802
0.80693
0.8056
0.80395
0.8026
0.8015
0.8001
0.79827
0.79728
0.7962
0.79472
0.79318
0.79221
0.79067
0.78922
0.78796
0.78647
0.78457
0.78346
0.78229
0.78165
0.78132
0.78122
0.78124
0.78163
0.7818
0.78228
0.78279
0.78318
0.78415
0.78471
0.78571
0.7871
0.78843
0.78975
0.79119
0.79219
0.7931
0.79377
0.79415
0.79425
0.79376
0.79284
0.79193
0.79049
0.78878
0.78719
0.78523
0.78327
0.7816
0.77966
0.7779
0.77649
0.77535
0.77438
0.77318
0.77253
0.77187
0.77119
0.77051
0.77023
0.7699
0.76949
0.76871
0.76808
0.76734
0.76626
0.76484
0.76343
0.76189
0.75983
0.75751
0.7552
0.75316
0.75049
0.74856
0.74668
0.74534
0.74422
0.74369
0.74319
0.74297
0.7429
0.74321
0.74356
0.74427
0.74475
0.74534
0.74567
0.74573
0.74568
0.74503
0.74411
0.74254
0.74071
0.73778
0.73463
0.73079
0.72636
0.72161
0.7163
0.71089
0.7053
0.69955
0.69378
0.68821
0.68295
0.67801
0.67345
0.66927
0.6657
0.66248
0.65987
0.65807
0.65652
0.65516
0.65385
0.65303
0.65225
0.65138
0.65004
0.64865
0.64659
0.64443
0.64178
0.63828
0.63483
0.63075
0.62647
0.62195
0.61751
0.61307
0.60856
0.60451
0.60015
0.59605
0.59207
0.58834
0.58482
0.58156
0.57858
0.57612
0.57374
0.57201
0.57032
0.56935
0.56855
0.56836
0.56845
0.56906
0.56993
0.57144
0.57316
0.57525
0.57791
0.58093
0.58433
0.58813
0.59229
0.59666
0.60151
0.607
0.61263
0.61867
0.62481
0.63121
0.6377
0.64441
0.65145
0.65852
0.66522
0.67238
0.67864
0.68537
0.69172
0.69764
0.70346
0.70911
0.71473
0.71993
0.72576
0.73096
0.73627
0.74155
0.7466
0.7516
0.75602
0.76047
0.7645
0.76829
0.7718
0.77512
0.77808
0.78038
0.78265
0.78406
0.78563
0.78665
0.78721
0.78762
0.7871
0.78649
0.78591
0.78497
0.78416
0.78322
0.78209
0.78104
0.77968
0.77836
0.77684
0.77539
0.77435
0.77342
0.7731
0.77319
0.77326
0.77388
0.77431
0.77511
0.77587
0.77635
0.77741
0.77823
0.77927
0.78016
0.7814
0.78247
0.78354
0.78414
0.7846
0.78506
0.78465
0.78454
0.78396
0.78328
0.78212
0.78043
0.77873
0.77686
0.77444
0.77232
0.77003
0.76784
0.76543
0.76376
0.76212
0.76069
0.75957
0.75823
0.75717
0.75564
0.75361
0.751
0.74737
0.74344
0.73826
0.73225
0.72493
0.71611
0.70612
0.69394
0.67966
0.66329
0.64397
0.62158
0.59585
0.56654
0.5337
0.49718
0.45718
0.4134
0.36638
0.31622
0.26281
0.20676
0.14888
0.089821
0.031512
-0.025121
-0.077858
-0.12522
-0.1652
-0.19724
-0.22041
-0.23368
-0.23609
-0.22611
-0.20177
-0.16122
-0.1037
-0.026554
0.0696
0.18609
0.32236
0.47545
0.64345
0.82279
1.0099
1.2017
1.3952
1.5879
1.7768
1.9591
2.132
2.292
2.4364
2.5622
2.6665
2.7478
2.8047
2.8357
2.8409
2.8207
2.776
2.7091
2.622
2.5168
2.3962
2.2639
2.1215
1.9741
1.8232
1.6725
1.5244
1.3811
1.2446
1.1163
0.99806
0.89036
0.79418
0.70953
0.63678
0.57523
0.52435
0.4839
0.45255
0.42912
0.41267
0.40191
0.39601
0.39394
0.39485
0.39778
0.4018
0.40681
0.4115
0.41588
0.41961
0.42239
0.42368
0.42388
0.4228
0.42047
0.41715
0.41284
0.40781
0.4022
0.3961
0.38995
0.38352
0.37772
0.37232
0.36689
0.36215
0.35799
0.35392
0.35025
0.34721
0.34414
0.34162
0.33952
0.33744
0.33532
0.33377
0.33234
0.33108
0.33001
0.32879
0.32795
0.32724
0.32657
0.32587
0.32542
0.32466
0.32405
0.32363
0.32314
0.3227
0.32219
0.32166
0.32115
0.32086
0.32033
0.31979
0.31943
0.31881
0.31801
0.31674
0.31555
0.31417
0.31238
0.31037
0.30837
0.30606
0.30341
0.30106
0.29844
0.29599
0.29409
0.29194
0.29024
0.28842
0.28644
0.28498
0.28311
0.2815
0.27998
0.27834
0.27673
0.27512
0.27352
0.27192
0.27044
0.26866
0.26666
0.26447
0.26207
0.25947
0.25645
0.25352
0.25021
0.24704
0.24413
0.24113
0.23826
0.23516
0.23218
0.22942
0.22661
0.2236
0.22101
0.21827
0.21589
0.21327
0.21077
0.20851
0.20624
0.20386
0.20173
0.19916
0.19693
0.19466
0.19198
0.18928
0.18664
0.18374
0.18061
0.17726
0.1741
0.17052
0.16644
0.16255
0.15815
0.15401
0.14932
0.14472
0.13992
0.13503
0.13057
0.12575
0.12095
0.11635
0.11171
0.10725
0.10297
0.098703
0.094859
0.09106
0.087337
0.083816
0.08105
0.078745
0.07589
0.073812
0.071511
0.069816
0.067496
0.06588
0.063863
0.061925
0.060319
0.058517
0.056863
0.05554
0.054732
0.053862
0.053163
0.05293
0.052815
0.052998
0.053282
0.05417
0.05506
0.056225
0.058142
0.060491
0.062849
0.065767
0.069139
0.07211
0.075779
0.079454
0.083127
0.087304
0.091398
0.095597
0.10028
0.10487
0.1097
0.11488
0.12039
0.1263
0.13256
0.13885
0.1461
0.15388
0.16244
0.17161
0.18166
0.19241
0.20388
0.21597
0.22919
0.24297
0.25756
0.27251
0.28822
0.304
0.32018
0.33657
0.35332
0.37022
0.38683
0.40373
0.42065
0.43695
0.45325
0.46936
0.48481
0.50011
0.51501
0.52968
0.54382
0.55775
0.57143
0.58492
0.59818
0.61119
0.62454
0.63693
0.64966
0.66233
0.67451
0.68663
0.69862
0.71037
0.72202
0.73329
0.74414
0.75481
0.76542
0.77579
0.78551
0.7955
0.80497
0.81402
0.82284
0.83137
0.83952
0.84747
0.85528
0.86213
0.86893
0.87525
0.88115
0.88671
0.892
0.89725
0.90171
0.90611
0.90996
0.91363
0.91649
0.91937
0.92142
0.92336
0.92459
0.92529
0.9261
0.92645
0.92644
0.9263
0.92567
0.92528
0.9248
0.92405
0.92376
0.92339
0.92309
0.92234
0.92174
0.92093
0.92005
0.91911
0.91838
0.91764
0.91715
0.91683
0.91614
0.91572
0.91513
0.91422
0.91346
0.91232
0.91073
0.90909
0.907
0.90464
0.90196
0.89948
0.89684
0.89413
0.89118
0.88864
0.88608
0.88322
0.88098
0.87849
0.8762
0.87409
0.8714
0.86901
0.86678
0.86451
0.86229
0.86035
0.85861
0.85678
0.85518
0.85355
0.8516
0.85
0.84837
0.84661
0.84522
0.84382
0.84245
0.84117
0.83963
0.83808
0.83668
0.8352
0.83318
0.83136
0.82964
0.82784
0.82595
0.8241
0.82254
0.82124
0.81985
0.819
0.81807
0.81743
0.81695
0.8165
0.81606
0.81542
0.81512
0.81485
0.8145
0.81404
0.81373
0.81316
0.81277
0.81169
0.81083
0.80963
0.80839
0.80686
0.80515
0.80364
0.80214
0.80054
0.79929
0.79794
0.79699
0.79602
0.79562
0.79515
0.79497
0.79506
0.79537
0.79584
0.79673
0.79754
0.79845
0.7997
0.801
0.80191
0.80277
0.80356
0.80392
0.80394
0.80412
0.80398
0.80367
0.80302
0.80209
0.80133
0.80068
0.79911
0.79854
0.79775
0.79699
0.79634
0.79587
0.79546
0.79516
0.79517
0.7954
0.79572
0.79565
0.7958
0.79623
0.79666
0.79659
0.79714
0.79746
0.79789
0.79824
0.79846
0.79844
0.79869
0.79878
0.79883
0.79858
0.79833
0.79813
0.79797
0.79776
0.79736
0.79743
0.79729
0.79736
0.79749
0.79761
0.79778
0.79766
0.7977
0.79752
0.79723
0.79713
0.79713
0.79679
0.7968
0.7964
0.79621
0.79614
0.79588
0.79585
0.79533
0.79537
0.79485
0.79429
0.79366
0.7926
0.79178
0.791
0.79009
0.78922
0.78855
0.78832
0.78829
0.78833
0.78843
0.7883
0.78875
0.78871
0.78885
0.78879
0.78907
0.78927
0.78961
0.79015
0.79085
0.79089
0.79121
0.79177
0.79158
0.79165
0.79141
0.79107
0.79036
0.78951
0.78837
0.78725
0.78593
0.78437
0.78304
0.78145
0.77999
0.77844
0.77729
0.77591
0.77446
0.77336
0.7725
0.77137
0.77036
0.76976
0.76887
0.7685
0.76771
0.7674
0.76683
0.76648
0.76651
0.76636
0.76621
0.76601
0.76602
0.76549
0.76527
0.76492
0.76466
0.76413
0.76366
0.76332
0.76283
0.76237
0.76179
0.76112
0.76019
0.75913
0.7583
0.75717
0.75612
0.75492
0.75374
0.7528
0.75131
0.74972
0.74776
0.74513
0.74263
0.73938
0.73588
0.73182
0.72763
0.72337
0.71861
0.71415
0.7095
0.70456
0.69963
0.69481
0.69046
0.68607
0.68148
0.67726
0.67344
0.66917
0.66548
0.66177
0.65834
0.65527
0.65213
0.64955
0.64693
0.64456
0.64236
0.64011
0.63793
0.63594
0.63344
0.63097
0.62812
0.62509
0.62184
0.61824
0.61509
0.61155
0.60816
0.60486
0.60174
0.59835
0.59542
0.59261
0.58954
0.58666
0.58384
0.58142
0.57894
0.57715
0.57509
0.57351
0.57179
0.5703
0.56876
0.56757
0.56638
0.56516
0.56419
0.56325
0.5629
0.56271
0.56264
0.5628
0.56336
0.5643
0.56544
0.56727
0.56953
0.5725
0.57561
0.57932
0.58337
0.588
0.59326
0.59905
0.605
0.6114
0.61804
0.62496
0.63186
0.63908
0.64645
0.6539
0.66165
0.66889
0.67668
0.68401
0.69149
0.69886
0.70589
0.71299
0.71955
0.72575
0.73158
0.73729
0.74267
0.74758
0.75206
0.75611
0.76027
0.76382
0.76727
0.7699
0.77191
0.77389
0.77518
0.77625
0.77668
0.77726
0.77734
0.77729
0.77698
0.77676
0.77629
0.77552
0.77491
0.77467
0.77409
0.7737
0.7733
0.77277
0.77243
0.77221
0.77169
0.77134
0.77085
0.77035
0.76984
0.76929
0.76878
0.76786
0.76714
0.76623
0.76513
0.76404
0.76309
0.76189
0.7607
0.75962
0.75855
0.75728
0.75639
0.75587
0.75516
0.75443
0.75432
0.75412
0.75378
0.75373
0.75392
0.7544
0.75473
0.75513
0.75579
0.75621
0.75684
0.75746
0.75729
0.75725
0.75716
0.75655
0.75573
0.75441
0.75237
0.74931
0.74518
0.74007
0.73357
0.7259
0.7168
0.70561
0.69297
0.67843
0.66211
0.64314
0.6218
0.59718
0.56949
0.53858
0.50425
0.46669
0.42577
0.38157
0.33421
0.28388
0.23019
0.17465
0.1172
0.059422
0.0028241
-0.051079
-0.10065
-0.14373
-0.17937
-0.20729
-0.22629
-0.23531
-0.23271
-0.21729
-0.18732
-0.14024
-0.075385
0.0088717
0.11275
0.23699
0.38047
0.5401
0.71381
0.89786
1.0887
1.2835
1.4784
1.6715
1.8596
2.0398
2.2088
2.3633
2.5011
2.6182
2.7134
2.7846
2.8302
2.849
2.842
2.8094
2.7524
2.6733
2.5745
2.4584
2.328
2.1866
2.0379
1.8849
1.7305
1.5775
1.4287
1.2865
1.1524
1.0277
0.91393
0.81167
0.72139
0.6432
0.57664
0.52141
0.47693
0.442
0.41556
0.39649
0.3836
0.37645
0.37306
0.37278
0.37496
0.37806
0.38191
0.3857
0.38899
0.39139
0.39283
0.39318
0.39253
0.39055
0.38804
0.38409
0.37998
0.37508
0.36982
0.3644
0.35908
0.35376
0.34871
0.34412
0.3397
0.3356
0.33218
0.32932
0.32648
0.32459
0.32291
0.32118
0.32066
0.32011
0.31955
0.31916
0.31871
0.31834
0.31778
0.31717
0.31624
0.3152
0.31413
0.31309
0.3119
0.31059
0.3092
0.30805
0.30678
0.30518
0.30382
0.30234
0.30063
0.29888
0.2971
0.29549
0.29359
0.29216
0.29087
0.2895
0.28818
0.28686
0.28557
0.28433
0.28285
0.28172
0.28032
0.27888
0.27765
0.27652
0.27514
0.2737
0.27231
0.2706
0.26917
0.26726
0.26542
0.26381
0.26134
0.25947
0.25674
0.25409
0.25125
0.24847
0.24532
0.24239
0.23951
0.23654
0.23401
0.23138
0.22848
0.2261
0.22328
0.22087
0.21819
0.21518
0.21263
0.21
0.20717
0.20446
0.2018
0.19905
0.19607
0.193
0.18997
0.18703
0.18374
0.18085
0.17735
0.17437
0.17166
0.16799
0.16476
0.16114
0.15776
0.15414
0.15053
0.14695
0.14362
0.14025
0.13674
0.13342
0.13005
0.12647
0.12297
0.11897
0.11511
0.11081
0.10674
0.10277
0.098604
0.094339
0.090401
0.086114
0.081798
0.078114
0.074254
0.0704
0.066854
0.063004
0.059897
0.056922
0.053927
0.051278
0.048804
0.046785
0.04492
0.042774
0.041185
0.039461
0.038061
0.037096
0.035792
0.034875
0.033944
0.032937
0.031969
0.031144
0.030496
0.029428
0.028833
0.028127
0.027531
0.027231
0.027027
0.027349
0.027684
0.028338
0.029734
0.031413
0.033427
0.035905
0.038878
0.042443
0.046546
0.051031
0.055985
0.061514
0.067431
0.073927
0.080619
0.087743
0.095553
0.10392
0.11311
0.12238
0.13218
0.14249
0.15286
0.16369
0.17481
0.18617
0.1979
0.20994
0.22222
0.23487
0.24776
0.26089
0.27459
0.28839
0.30179
0.31602
0.32995
0.34423
0.35882
0.3738
0.38875
0.40359
0.41873
0.43364
0.44862
0.46382
0.47849
0.49349
0.50842
0.52311
0.53811
0.55294
0.56782
0.58229
0.59699
0.61124
0.62553
0.63974
0.65354
0.6671
0.68032
0.69349
0.70602
0.71813
0.72952
0.74111
0.75213
0.76261
0.773
0.78255
0.79197
0.80091
0.80978
0.81748
0.82539
0.8327
0.8392
0.84563
0.8518
0.8572
0.8624
0.86715
0.87171
0.87601
0.87996
0.88389
0.88736
0.89056
0.89363
0.89648
0.89911
0.90129
0.90318
0.90485
0.90646
0.90745
0.90873
0.90927
0.91002
0.91064
0.91128
0.91152
0.91146
0.91167
0.91129
0.91076
0.90994
0.90936
0.90816
0.90687
0.90563
0.90366
0.90192
0.9003
0.89845
0.89656
0.89452
0.89237
0.89048
0.88818
0.88599
0.88368
0.88143
0.87901
0.87667
0.87422
0.87182
0.86982
0.86765
0.86563
0.86351
0.86174
0.85996
0.85831
0.85658
0.8553
0.85385
0.85238
0.8512
0.8497
0.84859
0.84701
0.84567
0.84436
0.84269
0.84138
0.83972
0.8383
0.837
0.83522
0.83333
0.83155
0.82965
0.82755
0.82555
0.82354
0.82161
0.8195
0.81722
0.8152
0.81292
0.81067
0.80832
0.80624
0.80419
0.80242
0.80071
0.79895
0.79759
0.7964
0.79528
0.79436
0.79339
0.79264
0.792
0.79134
0.79102
0.79045
0.79008
0.78976
0.78953
0.78885
0.7884
0.7881
0.78756
0.7874
0.787
0.78647
0.78562
0.78493
0.78427
0.78351
0.78283
0.78224
0.78151
0.78053
0.77987
0.77912
0.77882
0.77823
0.77783
0.77793
0.77771
0.77741
0.77734
0.77707
0.77656
0.7765
0.77604
0.77592
0.77555
0.77519
0.77523
0.775
0.77523
0.77512
0.77528
0.77562
0.77575
0.77641
0.77669
0.77713
0.77781
0.77873
0.77959
0.78048
0.78161
0.78297
0.78409
0.78579
0.787
0.78845
0.78946
0.7903
0.79126
0.79185
0.79226
0.7924
0.79242
0.79248
0.7926
0.79247
0.79185
0.79125
0.79088
0.79003
0.78936
0.78872
0.78829
0.78766
0.78744
0.78709
0.78679
0.78657
0.78631
0.78651
0.78626
0.78632
0.78678
0.78686
0.78708
0.7872
0.78748
0.78756
0.7875
0.78757
0.78774
0.7874
0.7874
0.78709
0.78683
0.7862
0.78545
0.78473
0.78385
0.78291
0.78193
0.78114
0.7802
0.77949
0.77854
0.77777
0.7772
0.77674
0.77575
0.77537
0.77478
0.77439
0.77421
0.77376
0.77365
0.77301
0.77299
0.77292
0.77265
0.7729
0.77291
0.7726
0.77256
0.77245
0.77234
0.77177
0.77102
0.77062
0.77022
0.76962
0.76888
0.76834
0.76775
0.76733
0.76691
0.76663
0.76614
0.76547
0.76521
0.76449
0.76423
0.76386
0.76321
0.76269
0.76188
0.76091
0.76038
0.75966
0.75912
0.75822
0.75688
0.75605
0.75468
0.75345
0.7521
0.75022
0.74886
0.74751
0.74604
0.74449
0.74294
0.74146
0.74022
0.73923
0.73846
0.73733
0.73639
0.73588
0.73543
0.7352
0.73501
0.73534
0.73547
0.73573
0.73603
0.73625
0.73688
0.73726
0.73775
0.73823
0.73841
0.73835
0.73811
0.73778
0.73698
0.73632
0.73533
0.73419
0.73261
0.73138
0.72981
0.72815
0.72622
0.72477
0.72315
0.72154
0.72014
0.71883
0.71734
0.71618
0.71525
0.71437
0.71382
0.7136
0.71323
0.71356
0.71343
0.7138
0.7141
0.71407
0.71429
0.71426
0.71431
0.71439
0.71432
0.71399
0.71379
0.71346
0.71315
0.7125
0.71184
0.71081
0.7099
0.70813
0.70562
0.70256
0.69866
0.69428
0.68951
0.6844
0.67909
0.6738
0.66799
0.66253
0.65657
0.65111
0.64556
0.64024
0.63484
0.62956
0.62409
0.61939
0.61512
0.61115
0.60797
0.60531
0.60375
0.60259
0.60192
0.60173
0.60197
0.60197
0.60221
0.60208
0.60203
0.60171
0.60063
0.5994
0.59759
0.59581
0.59336
0.59041
0.58733
0.58381
0.57992
0.57592
0.57135
0.56659
0.56155
0.55679
0.55208
0.54751
0.54324
0.53913
0.5356
0.53215
0.52937
0.52655
0.52457
0.52309
0.52185
0.52148
0.52146
0.52207
0.52323
0.52475
0.52672
0.52885
0.53146
0.5342
0.53687
0.53999
0.54358
0.547
0.55092
0.55492
0.55952
0.56461
0.5699
0.57556
0.58113
0.58718
0.59337
0.59978
0.60629
0.6132
0.61997
0.62696
0.63424
0.6416
0.6492
0.65644
0.66366
0.67073
0.67737
0.68371
0.68965
0.69495
0.69982
0.70429
0.70828
0.71173
0.71495
0.71811
0.72033
0.72276
0.72459
0.72624
0.72762
0.72862
0.72977
0.73032
0.7309
0.73132
0.73145
0.7317
0.73195
0.73185
0.73213
0.73223
0.73253
0.73279
0.73311
0.73311
0.73338
0.73364
0.73361
0.73365
0.73351
0.73319
0.73292
0.73236
0.73223
0.73186
0.73145
0.73133
0.73092
0.73057
0.7301
0.72955
0.72878
0.72805
0.72697
0.7262
0.72504
0.72416
0.72338
0.72238
0.7215
0.72031
0.71921
0.71761
0.71636
0.71521
0.71419
0.71356
0.71328
0.71244
0.71205
0.71177
0.71124
0.71096
0.71095
0.71061
0.71043
0.71001
0.70919
0.70741
0.70472
0.70098
0.69633
0.69026
0.68323
0.67449
0.66425
0.65189
0.63774
0.6215
0.60221
0.58023
0.55485
0.52589
0.49382
0.45833
0.41919
0.37667
0.33069
0.28199
0.23062
0.17648
0.12023
0.063351
0.0058409
-0.050902
-0.10467
-0.15409
-0.19747
-0.23353
-0.26178
-0.28086
-0.29029
-0.28846
-0.27355
-0.24431
-0.19889
-0.13591
-0.053782
0.047714
0.16834
0.30809
0.4642
0.63353
0.8128
0.99891
1.189
1.3802
1.5693
1.7539
1.9312
2.0978
2.2509
2.3874
2.5047
2.5998
2.6715
2.7186
2.7398
2.7353
2.7066
2.6542
2.58
2.4866
2.3762
2.2517
2.1166
1.974
1.8268
1.678
1.5308
1.3876
1.2506
1.1213
1.0016
0.89214
0.79382
0.70709
0.63161
0.5678
0.51459
0.47163
0.43837
0.41287
0.3946
0.38289
0.37599
0.37296
0.3731
0.3748
0.37764
0.3817
0.38556
0.3891
0.39234
0.39455
0.39594
0.39614
0.39545
0.39353
0.39065
0.38707
0.38255
0.37736
0.37192
0.36619
0.36038
0.35493
0.34922
0.34394
0.3386
0.33373
0.32922
0.32487
0.32076
0.31687
0.31388
0.3109
0.30831
0.30623
0.30461
0.30358
0.30232
0.30151
0.30122
0.30051
0.30036
0.30018
0.29998
0.30021
0.30011
0.30013
0.30007
0.2996
0.299
0.2984
0.29717
0.29584
0.2945
0.29277
0.29057
0.28819
0.28589
0.28362
0.28121
0.27899
0.27653
0.27414
0.27201
0.26982
0.26761
0.26564
0.26374
0.26205
0.26027
0.25838
0.25687
0.25502
0.25345
0.25177
0.25031
0.24881
0.2477
0.24623
0.24484
0.2434
0.24186
0.24023
0.23851
0.23626
0.23369
0.23143
0.22901
0.22656
0.22394
0.22161
0.21923
0.2167
0.21395
0.21095
0.20796
0.20487
0.20127
0.19771
0.19376
0.1901
0.1865
0.18298
0.17932
0.17607
0.17307
0.17019
0.16749
0.16485
0.16216
0.15938
0.15681
0.15404
0.15117
0.14862
0.14602
0.14285
0.13993
0.1365
0.13287
0.12926
0.12506
0.12081
0.1162
0.11121
0.10653
0.10098
0.095949
0.090422
0.084886
0.079947
0.074722
0.06952
0.064619
0.059561
0.05474
0.0501
0.045922
0.041683
0.038034
0.034152
0.030973
0.027805
0.025401
0.023105
0.021075
0.019721
0.018346
0.017256
0.016303
0.015746
0.014919
0.014059
0.013439
0.012788
0.012063
0.01177
0.011333
0.010691
0.0099977
0.0094525
0.0087659
0.0084571
0.0081066
0.0076713
0.0076948
0.0076438
0.007677
0.0077035
0.0078762
0.0082503
0.0089666
0.010385
0.01201
0.014258
0.016958
0.020161
0.023491
0.027473
0.031902
0.036638
0.042364
0.048276
0.054429
0.061209
0.068317
0.075875
0.083502
0.092403
0.10147
0.11131
0.12175
0.13277
0.14396
0.15543
0.16755
0.17961
0.19247
0.20569
0.21957
0.23354
0.24797
0.26253
0.27748
0.29228
0.30724
0.32246
0.33773
0.35305
0.36869
0.38428
0.39966
0.41534
0.43106
0.44618
0.46146
0.47675
0.49207
0.50688
0.52177
0.53657
0.55139
0.56591
0.58039
0.59459
0.60834
0.62198
0.63518
0.64815
0.66057
0.67253
0.68411
0.69551
0.70662
0.71744
0.72793
0.73796
0.74774
0.75709
0.76611
0.77478
0.78262
0.79044
0.79806
0.80491
0.81146
0.81777
0.82353
0.82938
0.83494
0.83979
0.84449
0.84902
0.8533
0.8574
0.86089
0.86423
0.8675
0.87029
0.87287
0.87529
0.8772
0.87909
0.88089
0.88213
0.88368
0.88469
0.8855
0.88627
0.88654
0.88661
0.88629
0.8857
0.88501
0.88382
0.88222
0.88085
0.87888
0.87708
0.87494
0.87254
0.87049
0.86764
0.86526
0.86304
0.86075
0.85851
0.85655
0.8547
0.85264
0.85109
0.84928
0.84758
0.846
0.84464
0.84297
0.84162
0.84046
0.8395
0.8381
0.83718
0.83609
0.83497
0.83355
0.8322
0.83049
0.8287
0.82683
0.82438
0.82214
0.81947
0.81663
0.81373
0.81081
0.808
0.80527
0.80245
0.7997
0.79711
0.79444
0.79176
0.78915
0.78693
0.78421
0.78245
0.78046
0.77907
0.77745
0.77595
0.77464
0.77384
0.77317
0.7721
0.77152
0.77051
0.76982
0.76871
0.76796
0.76684
0.76589
0.76453
0.76298
0.76212
0.76076
0.75932
0.75826
0.75683
0.75556
0.7541
0.75329
0.75222
0.75113
0.75026
0.74985
0.74923
0.74923
0.74896
0.74889
0.74901
0.74925
0.74939
0.74965
0.75011
0.74996
0.7502
0.75028
0.75018
0.74983
0.74948
0.74885
0.74843
0.74783
0.74736
0.74662
0.74588
0.74545
0.74438
0.7438
0.74317
0.74216
0.74157
0.74095
0.74053
0.7402
0.73993
0.73996
0.73981
0.73989
0.73999
0.7403
0.74051
0.74106
0.74142
0.74161
0.74198
0.74212
0.74224
0.74257
0.74287
0.7432
0.7437
0.744
0.74416
0.74417
0.74438
0.74451
0.74434
0.74459
0.74459
0.74491
0.74494
0.74524
0.7456
0.7455
0.74562
0.74588
0.74605
0.74597
0.74601
0.74598
0.74615
0.74607
0.74598
0.74594
0.74592
0.74601
0.74564
0.7451
0.74493
0.74435
0.74398
0.74329
0.7428
0.74231
0.74134
0.7409
0.74056
0.74019
0.73975
0.73917
0.73873
0.73785
0.73712
0.7364
0.73594
0.73583
0.73528
0.73527
0.73515
0.73492
0.73504
0.73489
0.73507
0.73499
0.73504
0.73525
0.73515
0.73521
0.73521
0.73517
0.73534
0.73529
0.73531
0.7351
0.73476
0.73451
0.73397
0.73347
0.7328
0.73186
0.73099
0.73007
0.72915
0.72843
0.72726
0.72644
0.72546
0.72487
0.72385
0.72286
0.72206
0.72091
0.72015
0.71925
0.71833
0.71766
0.7169
0.71621
0.71532
0.71456
0.7141
0.71354
0.71302
0.71222
0.71162
0.71084
0.71022
0.7097
0.70877
0.7083
0.70743
0.70667
0.70618
0.70573
0.70553
0.70529
0.70512
0.70512
0.70505
0.70463
0.70422
0.70367
0.70298
0.70258
0.70185
0.70097
0.69986
0.6993
0.69879
0.69793
0.69658
0.69569
0.69444
0.69337
0.69206
0.69072
0.69006
0.68927
0.68851
0.68821
0.68767
0.68727
0.68715
0.68697
0.68703
0.68669
0.68662
0.68658
0.68646
0.68658
0.68659
0.68669
0.68679
0.68652
0.68658
0.68638
0.68584
0.68532
0.68472
0.68435
0.68378
0.68309
0.68255
0.68192
0.68155
0.6809
0.67979
0.67845
0.67655
0.67443
0.67175
0.66894
0.66526
0.66133
0.65719
0.65273
0.64818
0.64316
0.63825
0.63351
0.62819
0.62324
0.61796
0.61276
0.60749
0.60253
0.5979
0.59335
0.58942
0.58579
0.58223
0.57944
0.5767
0.57431
0.57245
0.57038
0.56872
0.56695
0.5655
0.56363
0.56174
0.55977
0.55769
0.55549
0.55323
0.55093
0.54856
0.54604
0.54394
0.54123
0.53881
0.53668
0.53428
0.53165
0.52937
0.52707
0.52477
0.52268
0.52059
0.51907
0.5173
0.51596
0.51479
0.51333
0.51227
0.5113
0.51077
0.51041
0.5101
0.51034
0.51104
0.51198
0.51326
0.51495
0.51713
0.51953
0.52235
0.52569
0.52955
0.53359
0.53847
0.54356
0.54897
0.55438
0.56044
0.5669
0.57311
0.58009
0.58681
0.59355
0.60065
0.60762
0.61435
0.62114
0.62811
0.63471
0.64095
0.64709
0.65297
0.65839
0.66365
0.66841
0.67293
0.67706
0.68117
0.68477
0.6881
0.69138
0.69434
0.69729
0.69969
0.70151
0.70385
0.70579
0.70723
0.70867
0.70997
0.71062
0.71145
0.71257
0.71309
0.71381
0.71399
0.71443
0.71445
0.71458
0.71485
0.71463
0.71456
0.71434
0.71402
0.7136
0.71324
0.7125
0.71195
0.71128
0.7105
0.70968
0.70866
0.70748
0.70655
0.70529
0.7042
0.70313
0.70195
0.70069
0.69997
0.69925
0.69779
0.69693
0.69595
0.6952
0.69377
0.69295
0.69215
0.69141
0.69094
0.69071
0.69032
0.69063
0.69084
0.69104
0.69148
0.69181
0.69218
0.69269
0.69318
0.69331
0.69344
0.69325
0.69252
0.69159
0.68959
0.68703
0.68343
0.67858
0.67255
0.66468
0.65551
0.64427
0.63163
0.61627
0.59859
0.57837
0.55474
0.52794
0.49774
0.46397
0.42695
0.38596
0.34205
0.29495
0.24424
0.19071
0.13456
0.077174
0.018533
-0.03969
-0.09531
-0.14719
-0.19263
-0.23092
-0.26139
-0.28302
-0.2949
-0.29544
-0.28367
-0.25717
-0.21481
-0.15464
-0.075721
0.023131
0.14144
0.27938
0.43508
0.60536
0.78703
0.97631
1.1702
1.365
1.5586
1.748
1.9303
2.1022
2.2612
2.4037
2.5273
2.629
2.7075
2.7608
2.7882
2.7892
2.7647
2.7156
2.6438
2.5521
2.4421
2.3172
2.1799
2.0342
1.8831
1.7296
1.5768
1.4274
1.2838
1.1477
1.0205
0.90421
0.79902
0.7056
0.62436
0.5548
0.49652
0.44899
0.41143
0.38254
0.36193
0.34777
0.3391
0.3354
0.33494
0.3367
0.34045
0.34462
0.3493
0.35395
0.35792
0.36087
0.3629
0.36384
0.36335
0.36159
0.35936
0.35584
0.35187
0.34724
0.34219
0.33711
0.33182
0.32663
0.32155
0.31633
0.31163
0.30733
0.30322
0.29975
0.2963
0.29363
0.29095
0.28879
0.28689
0.28547
0.28435
0.28341
0.28243
0.28204
0.28132
0.28099
0.28023
0.27943
0.27895
0.2783
0.27738
0.27663
0.27586
0.27485
0.2739
0.2723
0.27075
0.26908
0.26709
0.26511
0.26303
0.26059
0.25793
0.25558
0.25279
0.25045
0.24791
0.24561
0.24378
0.24161
0.23979
0.23795
0.2363
0.23502
0.23378
0.23271
0.23185
0.23093
0.23027
0.22995
0.22896
0.22822
0.22715
0.22615
0.22523
0.22417
0.22297
0.22194
0.22037
0.21865
0.21644
0.21429
0.21162
0.20875
0.20603
0.20285
0.19993
0.19665
0.19338
0.19043
0.18717
0.18403
0.18086
0.17779
0.17441
0.17131
0.16823
0.16504
0.16239
0.15918
0.15635
0.15316
0.15021
0.14733
0.14436
0.14114
0.13787
0.13474
0.13114
0.12753
0.12399
0.12017
0.11609
0.11201
0.10772
0.10346
0.098973
0.094694
0.090009
0.085454
0.081086
0.076952
0.07238
0.067807
0.063357
0.058894
0.054511
0.050213
0.045892
0.041531
0.037632
0.033343
0.029088
0.025442
0.02183
0.01816
0.014922
0.011639
0.0085652
0.00609
0.003651
0.0012559
-0.00068014
-0.0025167
-0.0043299
-0.0062183
-0.0074193
-0.00849
-0.0095872
-0.010063
-0.010879
-0.011135
-0.011091
-0.01122
-0.011018
-0.01085
-0.010652
-0.010253
-0.0097888
-0.0092315
-0.0085474
-0.0078804
-0.0067187
-0.0057097
-0.0045409
-0.0029142
-0.00070884
0.0014601
0.0043489
0.0074698
0.010987
0.014786
0.019211
0.023551
0.028489
0.033714
0.039224
0.045584
0.052312
0.059605
0.067736
0.076064
0.084128
0.09355
0.10326
0.11349
0.12425
0.13541
0.14696
0.15883
0.17138
0.18382
0.19718
0.21101
0.22468
0.23917
0.25346
0.26825
0.28348
0.29896
0.31451
0.32986
0.34516
0.36076
0.37625
0.39172
0.40682
0.42232
0.43767
0.45286
0.46832
0.48311
0.49816
0.51295
0.52761
0.54212
0.55615
0.57013
0.58384
0.59755
0.61101
0.62391
0.63682
0.64934
0.66207
0.67416
0.68607
0.6977
0.70936
0.72019
0.73079
0.74067
0.75036
0.75964
0.76842
0.77686
0.7848
0.79263
0.79982
0.80674
0.81321
0.81939
0.82522
0.83035
0.8353
0.83995
0.844
0.84792
0.85125
0.85422
0.85697
0.85955
0.86179
0.86403
0.86592
0.86757
0.86885
0.87015
0.87101
0.87187
0.87272
0.87318
0.87324
0.87346
0.87333
0.87322
0.87267
0.87239
0.87204
0.87184
0.87115
0.8704
0.86964
0.86857
0.86727
0.8658
0.86476
0.8628
0.86125
0.85955
0.85764
0.85572
0.85347
0.85152
0.8496
0.84759
0.84524
0.84308
0.84069
0.83813
0.8357
0.83357
0.8312
0.82889
0.82715
0.82521
0.823
0.82109
0.81882
0.81712
0.81495
0.81305
0.81149
0.80935
0.80773
0.80594
0.80394
0.80202
0.80012
0.79817
0.79623
0.79426
0.79189
0.79005
0.78811
0.78605
0.78439
0.78251
0.78096
0.77922
0.77749
0.77572
0.77419
0.77287
0.77146
0.77019
0.76879
0.76769
0.76655
0.76531
0.76464
0.76395
0.76312
0.7626
0.76145
0.7608
0.76
0.7593
0.75849
0.75769
0.7568
0.75621
0.75545
0.75453
0.7539
0.75338
0.75275
0.75215
0.75193
0.75105
0.75007
0.7493
0.74843
0.7477
0.74655
0.74564
0.74515
0.74431
0.74372
0.7434
0.74326
0.74287
0.74272
0.7429
0.74226
0.74206
0.74164
0.74106
0.74087
0.74079
0.74082
0.74073
0.74114
0.74156
0.74189
0.74231
0.7426
0.74309
0.74337
0.74358
0.7438
0.74393
0.74404
0.74416
0.7442
0.74424
0.74422
0.74384
0.74377
0.7437
0.74359
0.74359
0.74372
0.74402
0.74395
0.74427
0.74441
0.74466
0.74465
0.74495
0.74509
0.74543
0.74581
0.74619
0.74683
0.74708
0.74749
0.74776
0.74806
0.74836
0.74831
0.7482
0.74835
0.74799
0.74793
0.748
0.74769
0.74759
0.74697
0.74687
0.74641
0.74603
0.74542
0.74468
0.74428
0.74346
0.74292
0.74235
0.74134
0.74053
0.74013
0.73948
0.73896
0.73818
0.73735
0.73656
0.73553
0.73486
0.73359
0.73296
0.73197
0.73161
0.73085
0.73028
0.73004
0.72965
0.72943
0.72925
0.72937
0.72929
0.72948
0.72936
0.72961
0.73009
0.73016
0.73035
0.73055
0.73076
0.73061
0.73073
0.73062
0.73039
0.72993
0.72936
0.72884
0.7281
0.7272
0.72618
0.7253
0.7243
0.72302
0.72159
0.7205
0.71909
0.71806
0.71654
0.7156
0.7145
0.71334
0.71249
0.71156
0.71099
0.71024
0.70975
0.70934
0.70904
0.70882
0.70876
0.70902
0.70891
0.70893
0.70896
0.70871
0.70848
0.70833
0.7076
0.70704
0.70675
0.70607
0.70549
0.70482
0.70414
0.70331
0.70259
0.70188
0.70112
0.70066
0.70005
0.69957
0.69916
0.69868
0.69817
0.69792
0.69763
0.69735
0.69725
0.69677
0.6965
0.69622
0.69592
0.69594
0.69595
0.69562
0.69528
0.69525
0.69512
0.69478
0.69455
0.69433
0.69405
0.69408
0.6938
0.69357
0.69314
0.69235
0.69215
0.69152
0.69108
0.69087
0.69016
0.69004
0.68947
0.68896
0.68834
0.68728
0.68676
0.68607
0.68505
0.68407
0.68288
0.68176
0.68096
0.67999
0.67899
0.67807
0.67715
0.67626
0.67524
0.67382
0.67203
0.6704
0.66799
0.66545
0.66261
0.65934
0.65574
0.65181
0.64745
0.64301
0.63827
0.63379
0.62893
0.62394
0.6189
0.61392
0.6091
0.60438
0.60008
0.59575
0.59217
0.58886
0.58599
0.58367
0.58164
0.57995
0.5787
0.57793
0.57732
0.57642
0.57565
0.57495
0.57395
0.57287
0.57178
0.56992
0.56787
0.56592
0.56297
0.55995
0.55697
0.55339
0.54964
0.54562
0.54178
0.53754
0.53328
0.52905
0.52487
0.5209
0.51679
0.51351
0.51031
0.50751
0.50504
0.50317
0.5016
0.50059
0.49977
0.49944
0.49946
0.49985
0.50072
0.5018
0.50364
0.50563
0.50806
0.51075
0.51383
0.51688
0.52048
0.52455
0.52929
0.53386
0.53909
0.54432
0.55041
0.55633
0.56267
0.56934
0.57611
0.58301
0.5899
0.5967
0.60366
0.61078
0.61729
0.62396
0.63062
0.63662
0.64269
0.64836
0.65404
0.65933
0.6641
0.66862
0.67261
0.67612
0.67914
0.68229
0.68496
0.68762
0.69045
0.693
0.6957
0.69812
0.70027
0.70177
0.70364
0.70492
0.70601
0.70734
0.70825
0.70915
0.7099
0.71022
0.71093
0.71132
0.71167
0.71169
0.71172
0.71138
0.71063
0.71005
0.70916
0.70795
0.70661
0.70526
0.70372
0.70262
0.701
0.6998
0.69892
0.69796
0.69679
0.69619
0.69514
0.69423
0.6936
0.69252
0.69196
0.69113
0.69066
0.69022
0.68956
0.68881
0.68803
0.6877
0.68698
0.68641
0.68601
0.68558
0.68522
0.68476
0.68428
0.68353
0.68296
0.68233
0.68159
0.68048
0.6797
0.67845
0.67704
0.67511
0.67257
0.66963
0.66566
0.66049
0.65462
0.64721
0.63872
0.62896
0.61733
0.60433
0.58901
0.57204
0.55279
0.53059
0.50565
0.47768
0.44727
0.41304
0.37605
0.33625
0.29331
0.24758
0.1991
0.14828
0.095169
0.040913
-0.013942
-0.067705
-0.11849
-0.1644
-0.2039
-0.236
-0.25973
-0.27453
-0.27883
-0.27154
-0.25103
-0.2156
-0.16312
-0.092696
-0.0026694
0.10641
0.23524
0.3814
0.54277
0.71587
0.89732
1.0839
1.2733
1.4617
1.6471
1.8264
1.9964
2.1541
2.2964
2.4207
2.5236
2.6034
2.6591
2.6891
2.693
2.672
2.6267
2.559
2.4707
2.3643
2.2427
2.1093
1.9673
1.8196
1.6698
1.5205
1.3741
1.2334
1.0997
0.97533
0.86111
0.758
0.66642
0.58706
0.51968
0.46396
0.4187
0.38356
0.35686
0.33819
0.32603
0.31966
0.31747
0.31819
0.32143
0.32593
0.33112
0.33616
0.34102
0.34505
0.34806
0.35002
0.3502
0.34938
0.34722
0.34379
0.33994
0.33507
0.32987
0.32437
0.31873
0.31295
0.30728
0.30231
0.29753
0.29337
0.28968
0.28653
0.28379
0.28142
0.27919
0.27721
0.276
0.27486
0.27395
0.27303
0.2721
0.27189
0.27109
0.27063
0.26954
0.26885
0.26786
0.26639
0.26513
0.26373
0.26187
0.2601
0.25835
0.25658
0.25492
0.25284
0.25099
0.24925
0.24739
0.24587
0.24415
0.24292
0.24187
0.24054
0.23938
0.23811
0.23737
0.23641
0.23547
0.23491
0.23412
0.23324
0.23273
0.23208
0.231
0.22993
0.22884
0.22743
0.2262
0.22469
0.22315
0.22169
0.22032
0.21874
0.21713
0.21551
0.21336
0.21174
0.20943
0.20738
