ECG
0.038058
0.075569
0.067059
0.07207
0.069363
0.071633
0.070695
0.071936
0.071709
0.072428
0.072734
0.072972
0.073147
0.073253
0.073585
0.073223
0.073144
0.072876
0.072494
0.072432
0.07231
0.072283
0.072286
0.07273
0.072522
0.072456
0.072002
0.071151
0.070649
0.069977
0.069177
0.068321
0.067227
0.065965
0.064635
0.062964
0.061217
0.059852
0.05833
0.056595
0.055015
0.053343
0.051769
0.050509
0.049501
0.048922
0.048673
0.048987
0.049779
0.05109
0.052796
0.05471
0.056925
0.059067
0.061748
0.064356
0.06654
0.069161
0.07111
0.072998
0.075162
0.076327
0.077133
0.077709
0.078033
0.077511
0.076514
0.075715
0.073985
0.072226
0.069911
0.067258
0.064481
0.061493
0.058771
0.055816
0.053524
0.051253
0.049449
0.047881
0.046535
0.04571
0.044769
0.044437
0.043934
0.043448
0.043288
0.04349
0.043373
0.043782
0.044369
0.044834
0.044952
0.045007
0.044944
0.04501
0.044479
0.043547
0.043124
0.042266
0.041538
0.040752
0.040005
0.039583
0.039328
0.039494
0.039503
0.039676
0.039912
0.040245
0.040738
0.041261
0.041989
0.042717
0.043845
0.044741
0.045917
0.046847
0.04761
0.048594
0.049428
0.049713
0.049921
0.049909
0.049817
0.049729
0.049275
0.049023
0.048545
0.047906
0.047258
0.046423
0.045539
0.044501
0.043828
0.042811
0.042568
0.042245
0.042282
0.04208
0.041861
0.041693
0.041683
0.041594
0.041189
0.041316
0.041023
0.041031
0.040882
0.040824
0.040822
0.040799
0.040873
0.041176
0.041414
0.041936
0.042547
0.043028
0.043666
0.044398
0.044546
0.044934
0.044922
0.044413
0.043831
0.042753
0.041642
0.040695
0.039488
0.038185
0.037578
0.03678
0.035788
0.035174
0.033964
0.032873
0.032129
0.031735
0.03147
0.031659
0.032179
0.032891
0.034497
0.036126
0.038245
0.040381
0.042454
0.044388
0.046153
0.047244
0.049136
0.050516
0.05142
0.052017
0.052752
0.053017
0.053132
0.052558
0.051874
0.050985
0.049877
0.04873
0.047428
0.046144
0.044951
0.04385
0.042789
0.041914
0.041171
0.040709
0.040344
0.03963
0.039092
0.038253
0.037469
0.036998
0.036284
0.035514
0.034846
0.033355
0.032036
0.030336
0.028617
0.026467
0.02398
0.021148
0.0177
0.014478
0.011029
0.0075354
0.0042733
0.00081587
-0.0023702
-0.0055607
-0.0083688
-0.011149
-0.013423
-0.015207
-0.016466
-0.017545
-0.017756
-0.017726
-0.017113
-0.016102
-0.014252
-0.011908
-0.0093172
-0.0060114
-0.002534
0.0014374
0.005278
0.0095652
0.013163
0.017054
0.020494
0.023865
0.02696
0.029631
0.031975
0.033766
0.035385
0.036318
0.036844
0.036805
0.03637
0.035968
0.035233
0.034246
0.032966
0.032029
0.030925
0.029813
0.029255
0.02831
0.028219
0.027935
0.028068
0.028115
0.027841
0.028071
0.028032
0.028386
0.02898
0.029377
0.030245
0.030934
0.03156
0.03194
0.032424
0.032636
0.033103
0.033506
0.034264
0.034986
0.035421
0.035742
0.035997
0.036008
0.036072
0.035953
0.035634
0.034959
0.034271
0.03301
0.031762
0.029671
0.026876
0.023806
0.019705
0.014498
0.0084479
0.0013164
-0.0069776
-0.016093
-0.026054
-0.036532
-0.047291
-0.05841
-0.069909
-0.081707
-0.09394
-0.10614
-0.11872
-0.1308
-0.14277
-0.15372
-0.16381
-0.17248
-0.17915
-0.18383
-0.18572
-0.18499
-0.18187
-0.17595
-0.16786
-0.15725
-0.14483
-0.13006
-0.11351
-0.09505
-0.07457
-0.05242
-0.028169
-0.0029258
0.023865
0.051676
0.079309
0.10635
0.13308
0.15781
0.18028
0.2001
0.21702
0.23126
0.24247
0.25007
0.25493
0.25662
0.25552
0.25143
0.24406
0.23437
0.22165
0.20684
0.18974
0.17164
0.15202
0.13175
0.11158
0.091673
0.073016
0.05494
0.038424
0.023175
0.010291
-0.00064109
-0.0094874
-0.016326
-0.021202
-0.024126
-0.025135
-0.025272
-0.023773
-0.021219
-0.018041
-0.01415
-0.010347
-0.0060863
-0.0016586
0.002551
0.0067415
0.010546
0.01439
0.017909
0.02106
0.023043
0.025018
0.02655
0.027404
0.027821
0.028191
0.028165
0.02821
0.0276
0.026872
0.026171
0.0252
0.024338
0.023024
0.021796
0.020674
0.019322
0.017955
0.016381
0.014864
0.013472
0.012202
0.011034
0.010143
0.008916
0.0084804
0.0081966
0.0080044
0.0084034
0.0087987
0.0096297
0.010704
0.011442
0.012057
0.013047
0.013683
0.014446
0.01517
0.015514
0.015402
0.015479
0.015337
0.014678
0.014103
0.013023
0.011833
0.010554
0.0088916
0.006964
0.005212
0.0033314
0.0012549
-0.00034964
-0.0020728
-0.0036781
-0.0055315
-0.0068169
-0.0079146
-0.0094066
-0.010431
-0.011273
-0.01188
-0.012344
-0.012761
-0.012875
-0.012874
-0.012967
-0.012924
-0.012807
-0.012592
-0.012032
-0.011656
-0.011358
-0.010819
-0.010604
-0.010235
-0.010037
-0.010029
-0.010019
-0.010534
-0.011186
-0.011837
-0.013001
-0.013973
-0.015517
-0.017196
-0.018481
-0.019978
-0.02184
-0.024174
-0.026205
-0.028157
-0.030391
-0.032366
-0.034539
-0.036442
-0.038098
-0.039522
-0.040774
-0.04162
-0.042345
-0.042842
-0.043088
-0.043232
-0.043324
-0.043256
-0.042853
-0.042708
-0.042403
-0.04217
-0.042077
-0.042221
-0.042454
-0.0427
-0.043365
-0.043999
-0.044869
-0.045934
-0.047153
-0.048236
-0.049781
-0.051357
-0.052692
-0.054548
-0.056115
-0.057628
-0.058983
-0.060374
-0.061455
-0.062581
-0.063527
-0.064059
-0.064788
-0.065112
-0.064981
-0.065026
-0.06459
-0.064422
-0.064174
-0.063812
-0.063491
-0.063179
-0.06271
-0.062534
-0.062077
-0.061778
-0.061431
-0.061128
-0.061294
-0.061117
-0.061068
-0.061027
-0.061197
-0.061607
-0.06171
-0.061797
-0.062099
-0.06224
-0.062068
-0.061661
-0.061167
-0.06074
-0.060273
-0.059646
-0.059064
-0.058059
-0.056968
-0.055821
-0.05402
-0.052005
-0.049805
-0.04715
-0.044817
-0.041937
-0.039052
-0.035869
-0.03254
-0.028903
-0.025273
-0.02152
-0.017786
-0.013675
-0.0096559
-0.0058304
-0.0019356
0.0015538
0.0048025
0.0081967
0.011314
0.0138
0.016301
0.018561
0.020631
0.0228
0.024961
0.026985
0.029297
0.031269
0.033559
0.035616
0.037561
0.039699
0.041461
0.043906
0.046109
0.048621
0.051273
0.05416
0.056758
0.059661
0.062558
0.065103
0.067773
0.070047
0.071844
0.073732
0.074858
0.075841
0.076204
0.076586
0.076696
0.07642
0.076363
0.07612
0.075574
0.074883
0.074203
0.073367
0.072198
0.071031
0.070044
0.069432
0.068715
0.06861
0.0683
0.0684
0.068773
0.068863
0.069369
0.069453
0.070064
0.070588
0.071076
0.071965
0.072491
0.0735
0.074334
0.074717
0.075299
0.075939
0.076213
0.076172
0.076371
0.075791
0.075623
0.075292
0.074708
0.074034
0.073391
0.072316
0.07159
0.070769
0.070117
0.069168
0.068361
0.067286
0.066791
0.066133
0.065531
0.064777
0.064405
0.063712
0.063563
0.062805
0.062109
0.061742
0.061286
0.060446
0.059716
0.059253
0.058065
0.057377
0.056714
0.055766
0.055254
0.055007
0.05462
0.054385
0.054014
0.0538
0.053952
0.053758
0.054122
0.054009
0.054279
0.054444
0.054532
0.054776
0.055134
0.055637
0.056187
0.057044
0.057675
0.058546
0.058943
0.05937
0.05993
0.060215
0.060625
0.060543
0.061038
0.061241
0.061271
0.061438
0.06156
0.061707
0.061623
0.061448
0.061331
0.060867
0.059967
0.059264
0.057863
0.056618
0.055153
0.05353
0.051634
0.049836
0.04802
0.045694
0.043573
0.04146
0.039722
0.037555
0.036059
0.034923
0.03396
0.033093
0.032513
0.032333
0.032545
0.032586
0.033458
0.034636
0.035655
0.037171
0.038407
0.040323
0.041849
0.043618
0.045278
0.046717
0.048346
0.049628
0.050578
0.051651
0.052459
0.053073
0.053588
0.053747
0.053795
0.053582
0.053016
0.052456
0.051849
0.051588
0.051275
0.050964
0.050954
0.050979
0.051279
0.051402
0.051587
0.051903
0.052183
0.052928
0.053504
0.054018
0.055118
0.056
0.056877
0.057735
0.058601
0.05906
0.059423
0.05976
0.05967
0.059473
0.059172
0.05846
0.057918
0.056932
0.056363
0.055661
0.054747
0.054174
0.052939
0.052064
0.051395
0.050409
0.049627
0.049032
0.048696
0.048242
0.048406
0.048575
0.048294
0.047918
0.047429
0.046594
0.045944
0.045224
0.044759
0.044091
0.04337
0.042411
0.041762
0.04105
0.040071
0.039254
0.038515
0.037714
0.037236
0.037037
0.037212
0.037965
0.039073
0.040398
0.042329
0.044236
0.046504
0.048809
0.051198
0.053394
0.055794
0.057968
0.060052
0.062085
0.063622
0.065051
0.066223
0.067126
0.067541
0.067527
0.066978
0.066239
0.065164
0.063787
0.062025
0.060769
0.058622
0.056324
0.054201
0.051907
0.05004
0.048512
0.047166
0.045974
0.045045
0.044749
0.044148
0.043314
0.042845
0.042118
0.041389
0.04088
0.040521
0.040307
0.040446
0.040812
0.041353
0.042021
0.042586
0.04369
0.044756
0.045491
0.046571
0.047147
0.047868
0.048814
0.049291
0.049989
0.05069
0.051515
0.052258
0.053278
0.054269
0.055299
0.055989
0.056629
0.057096
0.057798
0.05832
0.05844
0.058327
0.058122
0.057766
0.057354
0.057031
0.056482
0.056579
0.056454
0.056215
0.056142
0.055904
0.055253
0.054593
0.053567
0.052189
0.051072
0.049587
0.048256
0.046439
0.045188
0.0432
0.041466
0.039204
0.036636
0.033722
0.030306
0.026793
0.023473
0.01979
0.016284
0.013234
0.010231
0.0076073
0.0050237
0.0023596
0.00017905
-0.0020024
-0.0041586
-0.0057214
-0.0070852
-0.0080937
-0.0082564
-0.0078716
-0.0069659
-0.0055106
-0.0037414
-0.0017996
0.0010417
0.0036218
0.0066692
0.0098532
0.013299
0.017276
0.02136
0.024972
0.028454
0.031742
0.034512
0.037306
0.039823
0.041852
0.043756
0.045346
0.046207
0.047297
0.048143
0.048246
0.048315
0.047941
0.04727
0.046503
0.045436
0.044222
0.042784
0.041643
0.040538
0.039517
0.038274
0.037477
0.036475
0.035785
0.035227
0.034748
0.034555
0.034719
0.035263
0.035428
0.036105
0.0365
0.036795
0.037293
0.037307
0.037297
0.037448
0.037488
0.03784
0.037852
0.038075
0.03789
0.038002
0.0379
0.037699
0.037508
0.037039
0.036011
0.034908
0.032845
0.030549
0.027201
0.023363
0.018646
0.013192
0.0070757
-0.000277
-0.0081307
-0.017236
-0.026766
-0.036636
-0.047552
-0.059084
-0.071236
-0.083675
-0.096401
-0.10964
-0.12252
-0.13539
-0.14673
-0.15664
-0.16458
-0.16997
-0.17251
-0.17202
-0.1685
-0.16223
-0.15335
-0.14211
-0.129
-0.11386
-0.096336
-0.077048
-0.055811
-0.032998
-0.0082086
0.017543
0.044303
0.071739
0.098295
0.12481
0.14952
0.17238
0.1926
0.21023
0.22515
0.23711
0.24643
0.25302
0.25684
0.25786
0.25606
0.25194
0.24483
0.23545
0.22341
0.20947
0.19377
0.17677
0.15877
0.14043
0.12193
0.10404
0.086354
0.070302
0.054953
0.040905
0.028298
0.01763
0.008871
0.0016451
-0.003117
-0.0062303
-0.0081627
-0.0081167
-0.0071658
-0.004705
-0.0015968
0.0020174
0.0067056
0.011619
0.016482
0.021768
0.026802
0.031459
0.035708
0.039425
0.04278
0.045777
0.048198
0.049827
0.050809
0.051155
0.051607
0.051194
0.050631
0.049724
0.048685
0.047792
0.046703
0.045493
0.044191
0.043005
0.041733
0.040265
0.038514
0.036867
0.034829
0.033059
0.030931
0.029037
0.027464
0.025888
0.024822
0.023491
0.022268
0.021046
0.019132
0.01716
0.014931
0.012516
0.010174
0.0075634
0.0056661
0.0038389
0.00262
0.0021377
0.0018643
0.0028104
0.0040298
0.0061278
0.0088818
0.011934
0.015031
0.018037
0.021063
0.024089
0.027153
0.030241
0.033391
0.036366
0.03912
0.041386
0.043086
0.044418
0.044343
0.04352
0.041918
0.039852
0.037371
0.03441
0.031271
0.028136
0.024756
0.021753
0.019042
0.016571
0.014421
0.012665
0.011578
0.010746
0.010237
0.010486
0.010997
0.011669
0.012276
0.01304
0.013548
0.013978
0.013701
0.013572
0.013183
0.012266
0.011342
0.0097644
0.0081856
0.0064487
0.004793
0.0027176
0.0012187
-0.0005489
-0.0023572
-0.0036091
-0.0045687
-0.0055723
-0.0063138
-0.0066949
-0.0068257
-0.0067234
-0.0066573
-0.006119
-0.005437
-0.0045004
-0.0037549
-0.0028641
-0.0022422
-0.0017365
-0.0013953
-0.0018509
-0.0023419
-0.0032925
-0.005221
-0.0067577
-0.0088699
-0.011027
-0.012598
-0.014623
-0.016659
-0.018322
-0.020338
-0.022577
-0.024827
-0.027193
-0.029954
-0.032472
-0.034872
-0.037017
-0.038945
-0.040746
-0.041933
-0.042879
-0.043469
-0.044061
-0.044685
-0.044464
-0.044222
-0.044133
-0.043565
-0.043196
-0.042751
-0.042373
-0.041625
-0.040661
-0.039604
-0.038218
-0.036754
-0.035384
-0.03372
-0.032102
-0.030416
-0.02926
-0.027569
-0.026534
-0.024936
-0.023628
-0.022308
-0.020905
-0.019988
-0.018934
-0.018398
-0.017702
-0.017622
-0.017221
-0.01703
-0.016703
-0.016303
-0.015827
-0.015477
-0.014688
-0.01401
-0.013307
-0.012338
-0.011162
-0.0095038
-0.0077127
-0.0054833
-0.0027658
-0.0002356
0.002857
0.0061389
0.0096258
0.01314
0.01704
0.021085
0.025195
0.02854
0.032275
0.035686
0.039011
0.041837
0.044486
0.0468
0.04865
0.050298
0.051585
0.052628
0.053212
0.05427
0.054533
0.054756
0.05495
0.054671
0.054724
0.054651
0.054992
0.055248
0.055598
0.056191
0.057031
0.058191
0.059806
0.0608
0.062248
0.064046
0.065406
0.066896
0.068228
0.070274
0.072053
0.074047
0.076215
0.078213
0.080021
0.081713
0.08406
0.085696
0.087589
0.088917
0.089963
0.090496
0.090741
0.090939
0.090721
0.09034
0.089723
0.088351
0.086743
0.08472
0.08218
0.08005
0.077564
0.074821
0.072015
0.068955
0.066247
0.063662
0.061219
0.059743
0.05821
0.057586
0.057263
0.057886
0.05895
0.060448
0.062742
0.065536
0.068454
0.071556
0.075206
0.079001
0.081932
0.085563
0.08892
0.091836
0.094465
0.096529
0.098323
0.099183
0.099646
0.099741
0.099126
0.097897
0.095725
0.093174
0.089807
0.085741
0.08131
0.076797
0.071675
0.066459
0.061521
0.056579
0.052404
0.048527
0.045284
0.0427
0.040833
0.039879
0.039193
0.039098
0.039684
0.040423
0.041799
0.043474
0.045382
0.047287
0.049849
0.05195
0.054321
0.056561
0.058466
0.05978
0.060816
0.061251
0.061551
0.061039
0.060524
0.059698
0.058798
0.058042
0.056865
0.05589
0.054904
0.054021
0.053214
0.052135
0.051504
0.050732
0.050547
0.05031
0.050199
0.050767
0.051178
0.051401
0.05175
0.052144
0.052237
0.052211
0.051976
0.052027
0.052098
0.051817
0.051678
0.051361
0.051067
0.050288
0.049453
0.048667
0.047431
0.046465
0.045606
0.044754
0.044247
0.043349
0.043279
0.043263
0.043703
0.044416
0.044991
0.045832
0.046775
0.048081
0.049218
0.049993
0.051064
0.05207
0.053182
0.054521
0.055693
0.056906
0.058091
0.058768
0.05955
0.059756
0.059911
0.059188
0.058657
0.057683
0.056041
0.054905
0.05323
0.051716
0.050338
0.048595
0.04746
0.046151
0.044645
0.043033
0.041793
0.040642
0.03957
0.039332
0.038774
0.038655
0.03879
0.038658
0.038877
0.03909
0.039545
0.0401
0.040967
0.041898
0.042747
0.043902
0.044866
0.04563
0.046514
0.047345
0.047953
0.048068
0.047732
0.046331
0.044793
0.042849
0.040323
0.037642
0.034755
0.032052
0.029848
0.027582
0.025727
0.024196
0.022635
0.021631
0.020761
0.020123
0.019789
0.01999
0.020812
0.022491
0.024317
0.027278
0.030426
0.034744
0.039031
0.043278
0.047759
0.051479
0.05522
0.058631
0.061214
0.06378
0.065824
0.067599
0.069292
0.070336
0.071206
0.0716
0.07176
0.071777
0.071495
0.071003
0.070379
0.069421
0.067837
0.066193
0.064336
0.062299
0.060256
0.058038
0.056012
0.054278
0.052158
0.05039
0.048936
0.047625
0.046102
0.045229
0.044644
0.043839
0.043169
0.042741
0.042327
0.042259
0.042211
0.042206
0.042525
0.043138
0.043691
0.044108
0.04459
0.044945
0.044868
0.045208
0.044874
0.044671
0.044492
0.044234
0.044095
0.043537
0.042927
0.042294
0.042184
0.042092
0.041867
0.041784
0.042013
0.042423
0.042902
0.043761
0.044592
0.045244
0.045696
0.046262
0.04665
0.04696
0.047011
0.046748
0.046205
0.045233
0.043808
0.042407
0.040857
0.038792
0.036863
0.035269
0.033846
0.032518
0.031524
0.030443
0.030149
0.029836
0.02988
0.030527
0.031481
0.03267
0.034046
0.036343
0.038445
0.040892
0.043784
0.04663
0.049352
0.052153
0.054928
0.057373
0.059269
0.061273
0.062974
0.064467
0.065459
0.066298
0.066597
0.066768
0.066549
0.066057
0.064998
0.063551
0.061442
0.059341
0.056476
0.053528
0.050128
0.046107
0.041431
0.036717
0.031517
0.02571
0.020049
0.014193
0.0085886
0.0030554
-0.0017505
-0.0060432
-0.010024
-0.012636
-0.014647
-0.015516
-0.015675
-0.0148
-0.014043
-0.01309
-0.011116
-0.0086675
-0.0061268
-0.0029031
0.0005454
0.0039343
0.0078662
0.011288
0.014231
0.017155
0.019059
0.020831
0.021574
0.021902
0.022209
0.022217
0.022313
0.022294
0.022236
0.022233
0.02232
0.022398
0.022461
0.022496
0.022751
0.022405
0.022444
0.022714
0.022991
0.02374
0.02466
0.025727
0.026922
0.028139
0.029672
0.03099
0.032498
0.034188
0.035889
0.037688
0.039371
0.040994
0.042439
0.044258
0.045822
0.047697
0.049525
0.051605
0.053552
0.055444
0.056911
0.058033
0.058394
0.05877
0.058198
0.057828
0.057317
0.056166
0.055237
0.054033
0.052592
0.051144
0.049443
0.047209
0.045012
0.042458
0.039884
0.036866
0.033794
0.030663
0.027395
0.02371
0.019336
0.014681
0.0091495
0.0031937
-0.0034512
-0.011012
-0.019292
-0.028235
-0.037968
-0.048628
-0.060398
-0.073095
-0.086619
-0.102
-0.11807
-0.13475
-0.1515
-0.16743
-0.18235
-0.19565
-0.20724
-0.21622
-0.22283
-0.2262
-0.22583
-0.22208
-0.21411
-0.20249
-0.18739
-0.16902
-0.14775
-0.12367
-0.097311
-0.068972
-0.03874
-0.0068803
0.026064
0.060096
0.093787
0.12755
0.15977
0.19028
0.21793
0.24184
0.26237
0.27874
0.29151
0.2998
0.30505
0.30681
0.30549
0.3013
0.2945
0.28512
0.27329
0.2601
0.24487
0.22798
0.21026
0.19184
0.17268
0.15324
0.13387
0.11483
0.096862
0.080595
0.065948
0.052125
0.040125
0.029555
0.020895
0.013107
0.0070654
0.0020696
-0.00216
-0.0051315
-0.0078063
-0.009302
-0.010014
-0.0099774
-0.0095025
-0.0083289
-0.0064498
-0.0044307
-0.0010447
0.0022443
0.0059269
0.0097225
0.013444
0.017301
0.020636
0.023784
0.026403
0.029385
0.031981
0.034385
0.037407
0.040334
0.04338
0.046102
0.048516
0.050268
0.050995
0.050979
0.050392
0.048549
0.046242
0.043685
0.041305
0.039177
0.037508
0.03663
0.036124
0.036286
0.036938
0.038276
0.040021
0.041815
0.04402
0.046169
0.047896
0.050154
0.051988
0.053687
0.05528
0.056529
0.057342
0.058144
0.058706
0.059065
0.059047
0.058465
0.057322
0.056738
0.055947
0.055294
0.055223
0.054876
0.05457
0.054236
0.053449
0.052373
0.050939
0.049395
0.047683
0.045777
0.044465
0.042333
0.040504
0.037998
0.035508
0.032445
0.028835
0.024695
0.019772
0.014661
0.009505
0.0043482
-0.00013723
-0.0037621
-0.0069868
-0.0097238
-0.011519
-0.01325
-0.014542
-0.015238
-0.015094
-0.01469
-0.013042
-0.010994
-0.0080086
-0.0047002
-0.00045042
0.0040654
0.0093944
0.014663
0.020138
0.025631
0.031224
0.036893
0.042483
0.047942
0.052944
0.057113
0.061125
0.064235
0.06623
0.068131
0.068712
0.068772
0.067942
0.066091
0.063115
0.05882
0.053107
0.046421
0.039228
0.031046
0.022497
0.014287
0.0060167
-0.0013439
-0.0082686
-0.013911
-0.018252
-0.021417
-0.023706
-0.026228
-0.028382
-0.031302
-0.034618
-0.038461
-0.042396
-0.045692
-0.049137
-0.052054
-0.054688
-0.057206
-0.059632
-0.061779
-0.063656
-0.064988
-0.066199
-0.066725
-0.066723
-0.066406
-0.065138
-0.062708
-0.058896
-0.054075
-0.048606
-0.041582
-0.033879
-0.025748
-0.016941
-0.008267
0.00013695
0.0079441
0.014948
0.020835
0.025724
0.029443
0.031912
0.03313
0.033339
0.032626
0.031029
0.029347
0.0265
0.023314
0.019966
0.017085
0.014319
0.012266
0.010493
0.0095325
0.0091579
0.009188
0.010317
0.01143
0.013083
0.015178
0.016789
0.018628
0.019847
0.021187
0.022277
0.023351
0.02436
0.02532
0.026225
0.027255
0.028209
0.029623
0.030851
0.031763
0.032989
0.034135
0.035317
0.036562
0.037981
0.039604
0.041136
0.04234
0.044097
0.045568
0.046384
0.047542
0.048664
0.04959
0.04994
0.050775
0.051364
0.051877
0.052758
0.054203
0.055396
0.057314
0.059676
0.062461
0.066147
0.070023
0.07432
0.078711
0.08272
0.086993
0.090941
0.094737
0.098226
0.10154
0.10491
0.10778
0.11031
0.11268
0.11422
0.11539
0.11544
0.11499
0.11392
0.11273
0.11119
0.10968
0.10832
0.10742
0.10683
0.10666
0.10698
0.10749
0.10797
0.109
0.11001
0.11045
0.11112
0.11153
0.11174
0.11159
0.11125
0.11055
0.10966
0.10835
0.10648
0.10443
0.10151
0.098293
0.094785
0.090963
0.086787
0.082372
0.078612
0.074802
0.07111
0.067979
0.065169
0.06256
0.060948
0.059729
0.059079
0.059018
0.059965
0.061667
0.064216
0.06763
0.07082
0.074719
0.078506
0.082195
0.086577
0.090565
0.094268
0.097606
0.10041
0.10252
0.10388
0.10458
0.10464
0.10389
0.1031
0.10136
0.099671
0.097601
0.095391
0.093052
0.090333
0.087527
0.085542
0.082853
0.08089
0.079653
0.078485
0.077538
0.077
0.077514
0.077765
0.078421
0.07901
0.079544
0.079826
0.080072
0.07981
0.079975
0.079397
0.078455
0.077234
0.075712
0.073861
0.07168
0.069713
0.067402
0.065383
0.063525
0.061372
0.0599
0.058063
0.056506
0.054781
0.052989
0.050895
0.048512
0.045933
0.043066
0.040047
0.037277
0.034594
0.032449
0.031087
0.029937
0.029201
0.028302
0.028331
0.028671
0.029334
0.030625
0.032534
0.034963
0.037505
0.040789
0.043922
0.047618
0.051328
0.055147
0.058927
0.062629
0.065697
0.068544
0.070732
0.072008
0.072604
0.072535
0.071588
0.069966
0.067768
0.065442
0.062766
0.060081
0.05707
0.054457
0.051989
0.049447
0.047218
0.045461
0.043511
0.041931
0.040663
0.039727
0.038656
0.037736
0.037517
0.037009
0.036843
0.037028
0.03773
0.038598
0.040013
0.041497
0.04348
0.045434
0.047693
0.050098
0.052277
0.054795
0.057039
0.059642
0.062134
0.064462
0.066474
0.068461
0.06996
0.07087
0.071171
0.07108
0.070046
0.069025
0.067182
0.064886
0.06234
0.059914
0.056845
0.053725
0.050808
0.047694
0.045093
0.042775
0.040532
0.038669
0.037526
0.036642
0.036527
0.036888
0.037365
0.038045
0.038795
0.039734
0.040557
0.041279
0.041953
0.042356
0.042443
0.042551
0.042608
0.04229
0.04192
0.041423
0.041009
0.040121
0.039499
0.039289
0.038511
0.038394
0.038577
0.038604
0.039087
0.039623
0.040751
0.041718
0.043093
0.044186
0.045033
0.045792
0.046093
0.046201
0.045965
0.045498
0.04509
0.044203
0.042888
0.042136
0.040543
0.039154
0.037755
0.036369
0.035287
0.034229
0.03324
0.032469
0.031833
0.031072
0.030263
0.029783
0.0294
0.028865
0.028476
0.028227
0.027984
0.027735
0.02762
0.02736
0.027536
0.027673
0.027759
0.028285
0.028979
0.030275
0.031214
0.032687
0.034021
0.035614
0.03706
0.038954
0.04089
0.04289
0.045208
0.04785
0.050573
0.053039
0.055472
0.057674
0.059599
0.060471
0.060842
0.060232
0.058702
0.056089
0.052808
0.048316
0.042942
0.036644
0.030278
0.023242
0.015831
0.008728
0.0012512
-0.0060474
-0.012786
-0.019807
-0.025993
-0.03152
-0.036602
-0.040467
-0.043286
-0.044781
-0.045091
-0.044326
-0.042571
-0.039917
-0.036353
-0.03206
-0.027156
-0.021429
-0.015317
-0.0095149
-0.0034023
0.002239
0.0076298
0.012822
0.017675
0.022085
0.02574
0.029048
0.03222
0.034343
0.036488
0.037951
0.03911
0.040195
0.041174
0.041695
0.042121
0.042498
0.043169
0.043374
0.043739
0.04402
0.043959
0.044146
0.043873
0.043845
0.043622
0.043592
0.043012
0.042205
0.041681
0.040877
0.039644
0.038358
0.037217
0.03598
0.034872
0.033982
0.032851
0.032201
0.031928
0.031168
0.030603
0.029822
0.028897
0.02774
0.026482
0.02528
0.023793
0.022044
0.020455
0.018559
0.01638
0.013893
0.010577
0.0067028
0.0018904
-0.0037616
-0.010517
-0.018337
-0.026939
-0.036539
-0.046854
-0.057806
-0.06919
-0.081063
-0.09295
-0.10545
-0.11772
-0.12983
-0.14156
-0.15268
-0.16259
-0.17146
-0.17853
-0.1835
-0.18581
-0.18549
-0.18272
-0.17705
-0.16844
-0.15712
-0.1436
-0.12806
-0.11077
-0.092061
-0.071639
-0.049902
-0.027012
-0.0028351
0.022149
0.048079
0.074452
0.10031
0.12635
0.15044
0.17286
0.19287
0.2105
0.22543
0.23795
0.24774
0.25437
0.25905
0.26088
0.25967
0.25605
0.24992
0.24082
0.22951
0.21572
0.19988
0.18214
0.1635
0.1434
0.12289
0.10234
0.082028
0.062992
0.044003
0.027038
0.011166
-0.0024096
-0.014281
-0.024077
-0.031556
-0.036897
-0.03961
-0.040661
-0.039837
-0.037543
-0.034318
-0.030123
-0.024903
-0.019266
-0.013313
-0.0067022
-0.00031673
0.0058816
0.011536
0.016939
0.021543
0.025675
0.02922
0.031992
0.03432
0.035741
0.036759
0.036998
0.036982
0.03688
0.035991
0.034956
0.033903
0.032355
0.031223
0.029475
0.027652
0.026005
0.024055
0.021884
0.019667
0.018012
0.016625
0.015555
0.014373
0.01364
0.012545
0.011637
0.010595
0.0098413
0.008795
0.0082091
0.0074847
0.0067785
0.0065372
0.0064399
0.0063213
0.0065363
0.0068998
0.0075274
0.0079004
0.0082636
0.0086063
0.0093806
0.010377
0.011068
0.012273
0.013327
0.01455
0.015949
0.017015
0.018115
0.019253
0.020474
0.02128
0.021818
0.022188
0.021882
0.021575
0.020906
0.019568
0.018133
0.016553
0.014411
0.012116
0.0096872
0.0068789
0.0039771
0.00070694
-0.0024406
-0.0060576
-0.0095878
-0.01252
-0.015226
-0.017377
-0.019128
-0.020813
-0.021835
-0.022229
-0.022415
-0.022464
-0.021914
-0.021579
-0.020789
-0.01973
-0.018638
-0.017007
-0.015788
-0.014475
-0.013159
-0.012029
-0.01124
-0.010552
-0.0098414
-0.0097989
-0.010175
-0.011021
-0.012159
-0.013776
-0.015733
-0.01747
-0.019729
-0.022055
-0.024303
-0.027106
-0.029823
-0.032689
-0.035768
-0.03887
-0.041806
-0.044581
-0.047076
-0.049355
-0.051226
-0.052546
-0.053439
-0.054633
-0.055169
-0.055446
-0.055175
-0.054231
-0.052954
-0.051434
-0.049349
-0.047486
-0.045322
-0.043138
-0.040983
-0.039138
-0.037819
-0.036294
-0.035505
-0.034293
-0.033537
-0.03319
-0.032995
-0.033424
-0.03464
-0.035941
-0.037734
-0.040059
-0.04207
-0.044269
-0.046544
-0.049037
-0.051289
-0.053253
-0.055406
-0.057003
-0.058184
-0.059695
-0.060805
-0.060977
-0.061669
-0.062084
-0.062504
-0.062809
-0.062786
-0.062363
-0.061795
-0.061357
-0.060561
-0.060413
-0.059459
-0.058415
-0.057842
-0.057229
-0.056177
-0.055204
-0.054397
-0.053015
-0.052309
-0.051279
-0.050222
-0.049346
-0.047991
-0.046475
-0.044847
-0.04249
-0.039969
-0.037024
-0.033571
-0.029753
-0.025607
-0.021357
-0.017028
-0.012879
-0.0083674
-0.0033713
0.0018571
0.0073166
0.013064
0.018766
0.024311
0.029762
0.035058
0.039933
0.044443
0.048361
0.051657
0.05483
0.057033
0.059123
0.060224
0.060712
0.060764
0.059525
0.058005
0.055728
0.053141
0.050948
0.048678
0.046777
0.045403
0.04437
0.043458
0.042906
0.042424
0.04227
0.042458
0.043053
0.044219
0.04574
0.047819
0.050588
0.053839
0.057185
0.060736
0.06429
0.067931
0.071231
0.074162
0.076805
0.07898
0.080115
0.081019
0.081996
0.082595
0.083064
0.083292
0.083103
0.082481
0.081813
0.081026
0.079985
0.079171
0.078295
0.076729
0.075903
0.074605
0.072963
0.071312
0.069533
0.067838
0.066129
0.064425
0.062694
0.060641
0.059048
0.057486
0.056091
0.054961
0.054008
0.052908
0.052179
0.051285
0.050699
0.050628
0.049951
0.050116
0.050074
0.050544
0.051084
0.051938
0.05297
0.054222
0.055686
0.057069
0.05836
0.059304
0.059775
0.059683
0.059656
0.059427
0.059123
0.058948
0.058989
0.059188
0.059322
0.059295
0.058969
0.058472
0.057769
0.057012
0.056573
0.056122
0.05588
0.055792
0.05583
0.055435
0.054959
0.053993
0.052819
0.05113
0.049251
0.046983
0.045087
0.04306
0.040868
0.038554
0.036302
0.033728
0.03119
0.028338
0.02568
0.022906
0.020275
0.017895
0.015686
0.01462
0.014003
0.014065
0.015462
0.017401
0.020301
0.023549
0.026991
0.03057
0.034344
0.038089
0.041233
0.04443
0.047558
0.050942
0.053794
0.056888
0.059716
0.061768
0.063105
0.064093
0.064058
0.063502
0.061935
0.060296
0.057854
0.054892
0.051872
0.048789
0.045041
0.041791
0.038659
0.035425
0.032882
0.03078
0.028748
0.026924
0.02579
0.024539
0.023212
0.02244
0.021887
0.022092
0.022144
0.022631
0.023328
0.02422
0.02506
0.02586
0.027155
0.028491
0.03037
0.031945
0.033628
0.035347
0.037004
0.03841
0.039758
0.041218
0.042014
0.04292
0.043262
0.043281
0.043267
0.042557
0.041689
0.040935
0.040031
0.038618
0.03709
0.035809
0.033884
0.032006
0.029547
0.027029
0.024339
0.021547
0.018918
0.016967
0.015518
0.014704
0.014594
0.015295
0.016151
0.017573
0.019315
0.021227
0.023484
0.025794
0.028357
0.030867
0.033565
0.036333
0.038923
0.041779
0.044848
0.047794
0.049968
0.052154
0.053102
0.053434
0.053438
0.052498
0.051257
0.049926
0.048578
0.046938
0.045285
0.043511
0.041731
0.039757
0.037632
0.035553
0.033376
0.031408
0.03006
0.02877
0.027948
0.027506
0.02751
0.02754
0.027883
0.028413
0.028495
0.029159
0.029912
0.030843
0.03227
0.03361
0.035043
0.036606
0.038032
0.039592
0.041076
0.04279
0.044411
0.045525
0.046651
0.047344
0.047993
0.048645
0.049437
0.04972
0.049766
0.050078
0.049608
0.049176
0.048628
0.04766
0.046824
0.045814
0.044932
0.043952
0.043124
0.042806
0.04228
0.041621
0.04103
0.04033
0.039305
0.038453
0.037478
0.036264
0.035297
0.033973
0.032401
0.030617
0.028419
0.026332
0.023879
0.021324
0.018351
0.01541
0.012392
0.0089923
0.0055606
0.0020934
-0.0011979
-0.004577
-0.0075945
-0.010566
-0.013109
-0.015218
-0.016725
-0.017307
-0.017854
-0.017499
-0.016508
-0.014668
-0.012434
-0.0095239
-0.0066485
-0.0032049
0.00045307
0.0043871
0.0082654
0.012055
0.016732
0.021028
0.025667
0.029936
0.034032
0.038037
0.041272
0.043904
0.046133
0.048099
0.049938
0.051495
0.0528
0.054062
0.054321
0.054578
0.054411
0.053662
0.052889
0.051465
0.05037
0.048954
0.047628
0.046608
0.045604
0.045256
0.04462
0.044284
0.043755
0.043052
0.04241
0.042081
0.041576
0.040933
0.040397
0.039998
0.039731
0.039509
0.040148
0.040262
0.040561
0.040696
0.041253
0.041007
0.040841
0.040153
0.039129
0.037306
0.034756
0.031683
0.027941
0.022797
0.016929
0.0099592
0.0026924
-0.0055828
-0.014911
-0.024716
-0.035102
-0.046076
-0.057881
-0.070222
-0.083172
-0.096746
-0.11042
-0.12425
-0.13754
-0.14973
-0.16046
-0.16936
-0.17569
-0.17968
-0.1806
-0.17883
-0.1738
-0.16578
-0.15499
-0.14185
-0.12578
-0.10782
-0.087414
-0.065497
-0.041739
-0.01607
0.010644
0.039164
0.068594
0.098052
0.12782
0.15606
0.18266
0.20684
0.22827
0.24627
0.26133
0.27313
0.28173
0.28697
0.28957
0.28836
0.28464
0.27766
0.26793
0.25572
0.24175
0.22555
0.20771
0.18872
0.16915
0.14882
0.12844
0.10874
0.089752
0.072193
0.055785
0.040904
0.027941
0.017133
0.0085277
0.0022053
-0.002284
-0.0046734
-0.0059605
-0.0057846
-0.0046312
-0.0025767
-8.53E-05
0.0039453
0.0080059
0.012306
0.016942
0.021033
0.024937
0.028213
0.031078
0.033397
0.035506
0.036993
0.038017
0.03927
0.039779
0.040043
0.039769
0.039772
0.0391
0.038458
0.037719
0.036958
0.036379
0.035332
0.034729
0.033793
0.032909
0.032059
0.031289
0.030391
0.029
0.027742
0.026359
0.024957
0.023132
0.021733
0.020314
0.01864
0.017447
0.016195
0.015235
0.01459
0.013538
0.013039
0.012425
0.011874
0.011406
0.011009
0.0107
0.010009
0.0097726
0.0096152
0.0095177
0.0098364
0.010674
0.011464
0.012877
0.014539
0.015713
0.016836
0.018023
0.018826
0.019405
0.020119
0.020906
0.021465
0.02196
0.022224
0.02251
0.022708
0.022905
0.022703
0.022663
0.022242
0.021639
0.020918
0.01969
0.018202
0.016693
0.014547
0.012226
0.009704
0.0073489
0.005156
0.0026223
0.00078515
-0.0010844
-0.0028434
-0.0038467
-0.0047152
-0.0053685
-0.0054698
-0.0057219
-0.0057874
-0.0057282
-0.0056156
-0.0052335
-0.005161
-0.0046631
-0.0043655
-0.004019
-0.0035369
-0.002872
-0.0020031
-0.0010101
-0.0003512
0.00073688
0.0012089
0.001351
0.001523
0.0011085
0.00057529
-0.00010207
-0.00063024
-0.0016371
-0.0025573
-0.0034573
-0.0042975
-0.005457
-0.006627
-0.0077056
-0.0088389
-0.010024
-0.011476
-0.012738
-0.014321
-0.01619
-0.018123
-0.020468
-0.022678
-0.024969
-0.026848
-0.028548
-0.03056
-0.032052
-0.033802
-0.035794
-0.037441
-0.038875
-0.040362
-0.041759
-0.043044
-0.043933
-0.045045
-0.045925
-0.046494
-0.046997
-0.047808
-0.048797
-0.049727
-0.050715
-0.051598
-0.052684
-0.053693
-0.054584
-0.055627
-0.05626
-0.057139
-0.057438
-0.057742
-0.057862
-0.057126
-0.056214
-0.054964
-0.053375
-0.051641
-0.050084
-0.048043
-0.045719
-0.043128
-0.039882
-0.036684
-0.033472
-0.030545
-0.027832
-0.024829
-0.022518
-0.0203
-0.01812
-0.016209
-0.014581
-0.013387
-0.012423
-0.01188
-0.011828
-0.012002
-0.012357
-0.012756
-0.012694
-0.01275
-0.012265
-0.011365
-0.010249
-0.0086437
-0.0069016
-0.0045807
-0.0013933
0.0022662
0.0065424
0.011762
0.016702
0.022502
0.028209
0.033685
0.039271
0.045023
0.050475
0.055708
0.060637
0.064952
0.069474
0.073053
0.076364
0.079315
0.081263
0.083395
0.084892
0.085696
0.086597
0.086514
0.086355
0.085574
0.085127
0.084669
0.084011
0.083819
0.083451
0.083039
0.082708
0.082672
0.082176
0.082084
0.081755
0.081707
0.081805
0.082118
0.08208
0.082377
0.082561
0.083272
0.084236
0.08508
0.086247
0.08748
0.088711
0.089742
0.09134
0.092282
0.093198
0.093615
0.094099
0.094202
0.093776
0.093289
0.092754
0.091624
0.090819
0.089675
0.088504
0.087144
0.085751
0.083886
0.08212
0.080503
0.079877
0.078837
0.078342
0.077976
0.078027
0.078297
0.07829
0.078689
0.07938
0.079791
0.080373
0.080809
0.081107
0.081508
0.081433
0.081515
0.080732
0.079897
0.079102
0.077561
0.076268
0.074905
0.073391
0.072243
0.070988
0.069755
0.069125
0.068598
0.068126
0.068267
0.068474
0.068619
0.069064
0.069915
0.070775
0.07138
0.072077
0.07268
0.073023
0.073153
0.073049
0.072601
0.071978
0.071159
0.070163
0.068738
0.066987
0.064935
0.06279
0.060481
0.058157
0.055918
0.054073
0.052485
0.050785
0.049405
0.04804
0.046643
0.044872
0.042667
0.040547
0.03769
0.03524
0.032855
0.03084
0.028511
0.026426
0.024423
0.022061
0.019942
0.017754
0.016203
0.014936
0.014234
0.013652
0.0139
0.014593
0.015818
0.017722
0.020303
0.023629
0.027568
0.031589
0.035854
0.040014
0.04434
0.048371
0.05243
0.056578
0.060437
0.063884
0.06704
0.069663
0.071499
0.072806
0.073735
0.073964
0.073724
0.073331
0.072453
0.071532
0.070279
0.068705
0.066748
0.064092
0.061022
0.057715
0.054168
0.050552
0.046611
0.042741
0.03863
0.034811
0.031226
0.028108
0.025361
0.02317
0.021779
0.02103
0.020992
0.021185
0.022274
0.024177
0.026744
0.029678
0.032912
0.036924
0.040248
0.043856
0.046916
0.049787
0.052723
0.055414
0.058198
0.060385
0.062732
0.064579
0.065677
0.066666
0.067179
0.067112
0.066343
0.065622
0.064439
0.063213
0.061817
0.060454
0.059053
0.0574
0.05587
0.053947
0.051686
0.049207
0.046644
0.044418
0.041832
0.039788
0.037968
0.035782
0.033516
0.031016
0.028545
0.025728
0.023238
0.021412
0.020781
0.020567
0.021181
0.023306
0.026062
0.029433
0.033165
0.037409
0.041583
0.045746
0.049871
0.053769
0.057811
0.061254
0.064395
0.067031
0.069169
0.070666
0.071768
0.072324
0.07201
0.071029
0.069505
0.0676
0.065351
0.062812
0.060039
0.05746
0.054735
0.052232
0.049928
0.047552
0.04603
0.045015
0.044011
0.043702
0.043661
0.043766
0.044163
0.04444
0.044835
0.045565
0.045617
0.045785
0.045854
0.045393
0.044357
0.04283
0.040878
0.038118
0.034974
0.031677
0.027918
0.024117
0.020225
0.016142
0.012089
0.0077467
0.0033614
-0.00027014
-0.0035
-0.0060907
-0.0073939
-0.0078803
-0.0073368
-0.0065398
-0.0049319
-0.0026575
0.00011936
0.0034454
0.0070523
0.011239
0.015926
0.020271
0.02509
0.029455
0.033428
0.037417
0.040931
0.043641
0.046013
0.047841
0.049051
0.049566
0.049753
0.049348
0.048551
0.047643
0.046778
0.045739
0.044747
0.044174
0.044004
0.044222
0.044765
0.045358
0.045985
0.047125
0.048092
0.049279
0.050392
0.051765
0.053126
0.054359
0.056101
0.05701
0.057622
0.058156
0.058177
0.057548
0.056784
0.055609
0.053924
0.052048
0.050453
0.04886
0.047064
0.045566
0.043857
0.041992
0.040058
0.037531
0.034887
0.032017
0.029735
0.027256
0.02515
0.022783
0.021017
0.019357
0.016884
0.014594
0.011676
0.0078711
0.00333
-0.0019156
-0.0077036
-0.01425
-0.021388
-0.029012
-0.036494
-0.044692
-0.053341
-0.062372
-0.071831
-0.081545
-0.092189
-0.103
-0.11357
-0.12357
-0.13283
-0.14021
-0.14542
-0.14845
-0.1487
-0.14656
-0.1415
-0.13426
-0.12475
-0.11291
-0.099007
-0.082838
-0.064643
-0.044044
-0.021437
0.0027822
0.028711
0.056123
0.083979
0.11173
0.13919
0.16514
0.18876
0.21045
0.22929
0.24529
0.2588
0.26902
0.2762
0.28032
0.28138
0.279
0.27366
0.26556
0.25415
0.24027
0.22393
0.20525
0.18506
0.16388
0.14238
0.12087
0.099825
0.080282
0.062436
0.046209
0.031812
0.019558
0.0099427
0.0024362
-0.0027777
-0.0059117
-0.0068729
-0.005719
-0.0029067
0.0011428
0.0069827
0.013911
0.021162
0.028811
0.036662
0.043848
0.050197
0.056074
0.060444
0.064053
0.06616
0.06755
0.0675
0.066284
0.064875
0.062329
0.059744
0.056991
0.054115
0.051558
0.048754
0.046482
0.04391
0.041825
0.039554
0.037477
0.035435
0.033065
0.030929
0.028581
0.026447
0.024247
0.021663
0.01979
0.017674
0.01597
0.014413
0.012919
0.011956
0.011122
0.010529
0.010766
0.011514
0.012524
0.013966
0.015758
0.018158
0.020817
0.023389
0.025946
0.028624
0.030396
0.031603
0.032588
0.033041
0.033153
0.033049
0.0325
0.031989
0.031186
0.029749
0.027792
0.025531
0.022787
0.018989
0.014932
0.01045
0.0055987
0.0013755
-0.0025401
-0.0058142
-0.0086438
-0.010712
-0.012016
-0.01276
-0.012673
-0.011837
-0.010598
-0.0086056
-0.0062562
-0.0031626
0.00041972
0.0043857
0.0097171
0.015063
0.021226
0.027418
0.033909
0.040121
0.046233
0.051868
0.056845
0.06105
0.064261
0.066443
0.06772
0.067954
0.06707
0.065348
0.062678
0.059141
0.054784
0.049524
0.043528
0.036992
0.030089
0.023428
0.016697
0.010719
0.004666
-0.00052364
-0.0051445
-0.0092036
-0.012725
-0.015633
-0.018145
-0.02054
-0.023084
-0.025519
-0.02789
-0.030359
-0.032265
-0.033805
-0.035004
-0.035546
-0.035416
-0.034857
-0.033606
-0.032481
-0.031165
-0.029868
-0.028677
-0.027412
-0.026506
-0.025766
-0.024749
-0.023569
-0.02299
-0.021986
-0.021264
-0.020382
-0.019369
-0.018783
-0.018512
-0.019066
-0.020131
-0.021736
-0.023591
-0.026157
-0.028692
-0.031226
-0.033947
-0.036534
-0.03911
-0.04121
-0.043119
-0.044818
-0.045955
-0.046504
-0.04646
-0.046383
-0.045841
-0.04505
-0.043696
-0.042363
-0.040834
-0.039667
-0.037895
-0.036694
-0.035494
-0.034138
-0.033154
-0.032234
-0.031554
-0.030939
-0.030263
-0.029675
-0.02965
-0.029323
-0.029506
-0.029397
-0.029139
-0.028559
-0.028046
-0.027358
-0.025626
-0.023383
-0.020544
-0.016776
-0.012491
-0.0077463
-0.0026462
0.002521
0.0081187
0.013271
0.017956
0.021985
0.025518
0.028065
0.02984
0.031121
0.031229
0.030569
0.029191
0.027363
0.025214
0.022265
0.018857
0.014939
0.01116
0.0076648
0.0051037
0.0032383
0.0024828
0.0025924
0.0037534
0.0060882
0.0094311
0.014236
0.020741
0.0281
0.037191
0.047658
0.059047
0.071054
0.082996
0.095278
0.10726
0.1187
0.12874
0.13744
0.14508
0.15192
0.15711
0.16154
0.16435
0.16657
0.16775
0.16771
0.16685
0.16539
0.16335
0.16036
0.15656
0.15228
0.14735
0.14248
0.13712
0.13165
0.12649
0.12174
0.11637
0.11167
0.10712
0.10271
0.098608
0.094408
0.090726
0.087493
0.084561
0.08156
0.079571
0.077244
0.074767
0.072947
0.071255
0.069746
0.069108
0.068361
0.068165
0.067902
0.068045
0.068664
0.069154
0.069715
0.07061
0.070914
0.071397
0.071896
0.071823
0.071829
0.071818
0.071923
0.071722
0.071819
0.072187
0.073003
0.074163
0.075309
0.076605
0.07776
0.079031
0.079653
0.080115
0.080966
0.08163
0.082964
0.084325
0.085464
0.086559
0.087175
0.087643
0.088011
0.087809
0.087285
0.08667
0.085421
0.083962
0.081798
0.079889
0.077944
0.075687
0.073308
0.07109
0.069513
0.067216
0.06504
0.062843
0.060715
0.058528
0.056178
0.054153
0.052036
0.050407
0.048691
0.04715
0.045722
0.044855
0.043935
0.043223
0.04289
0.04291
0.043116
0.043874
0.044708
0.046148
0.047609
0.049315
0.051196
0.052792
0.054488
0.055988
0.058007
0.059873
0.062011
0.064031
0.065923
0.067522
0.068728
0.069298
0.069358
0.068994
0.06787
0.065841
0.06336
0.060755
0.057498
0.054342
0.050866
0.047731
0.045092
0.042379
0.039992
0.037821
0.036099
0.034964
0.033908
0.03398
0.034532
0.035056
0.036242
0.038159
0.040442
0.042836
0.045479
0.04815
0.050781
0.053415
0.055911
0.058367
0.059591
0.060786
0.061043
0.060857
0.060107
0.059122
0.058124
0.057198
0.056188
0.055246
0.054489
0.052805
0.0511
0.049279
0.04735
0.045449
0.044042
0.04242
0.041599
0.040832
0.040319
0.040367
0.040539
0.040902
0.041501
0.042168
0.04307
0.043684
0.044608
0.045757
0.047015
0.048279
0.049631
0.051099
0.052569
0.054126
0.055949
0.057678
0.059608
0.061265
0.063278
0.064953
0.066229
0.067314
0.068246
0.069448
0.070102
0.07109
0.071344
0.071746
0.071772
0.071281
0.070591
0.069735
0.068545
0.067426
0.066321
0.065153
0.063524
0.061862
0.059945
0.057779
0.055569
0.053265
0.050627
0.047487
0.044483
0.040818
0.037027
0.033324
0.029344
0.02552
0.021542
0.017614
0.014056
0.010507
0.0073244
0.004396
0.0016041
-0.00054978
-0.002716
-0.0041695
-0.0056646
-0.0066963
-0.007258
-0.0074183
-0.0074364
-0.0070474
-0.0060619
-0.0047295
-0.0028572
-0.00080003
0.0015118
0.0042577
0.006912
0.0093955
0.012063
0.014287
0.01664
0.019027
0.021589
0.02404
0.026374
0.028852
0.031018
0.033088
0.035272
0.036727
0.038431
0.040091
0.041696
0.043178
0.044645
0.045845
0.047391
0.048274
0.049684
0.050644
0.051657
0.052497
0.053159
0.053952
0.053611
0.053554
0.052517
0.051441
0.050511
0.049715
0.049079
0.048477
0.047555
0.046627
0.045269
0.043123
0.041055
0.03917
0.037001
0.035334
0.034041
0.032798
0.031859
0.031521
0.031071
0.031165
0.030733
0.030934
0.031105
0.031191
0.031167
0.031073
0.0304
0.029487
0.027691
0.02504
0.021659
0.016509
0.01084
0.0037594
-0.0043164
-0.013636
-0.023618
-0.034642
-0.046266
-0.058261
-0.070946
-0.083906
-0.097325
-0.11062
-0.12398
-0.13684
-0.149
-0.16021
-0.16969
-0.17692
-0.18188
-0.18401
-0.18251
-0.17871
-0.17173
-0.16201
-0.15016
-0.13556
-0.1194
-0.10149
-0.08171
-0.060463
-0.037661
-0.013093
0.013039
0.040299
0.068561
0.096509
0.12417
0.15068
0.17512
0.19695
0.21627
0.23296
0.24658
0.25771
0.26601
0.27147
0.27372
0.27298
0.26887
0.26181
0.25162
0.23878
0.22368
0.20625
0.18784
0.16827
0.14786
0.12729
0.10678
0.087
0.068801
0.05127
0.035278
0.021146
0.0093547
-3.60E-05
-0.0074589
-0.01282
-0.016052
-0.017583
-0.017594
-0.016186
-0.013349
-0.0097031
-0.0051874
-0.00067835
0.004161
0.0091715
0.013839
0.018245
0.021825
0.024858
0.02688
0.028888
0.02983
0.030356
0.030155
0.02955
0.028241
0.026738
0.025146
0.023508
0.021851
0.02021
0.018888
0.017671
0.01702
0.01626
0.015641
0.014891
0.013959
0.013221
0.012288
0.011377
0.010843
0.010193
0.0093729
0.0088619
0.0083292
0.0076674
0.00696
0.0062154
0.0049725
0.0036954
0.0026005
0.0014418
0.00020668
-0.00090801
-0.001761
-0.0026345
-0.0032099
-0.0034191
-0.0033561
-0.0029548
-0.0023982
-0.0014579
-0.0007184
0.00044326
0.0013985
0.0028288
0.0042891
0.0057523
0.0074891
0.0090346
0.010745
0.012126
0.013536
0.014912
0.015571
0.015856
0.015887
0.015541
0.014856
0.0139
0.012819
0.011607
0.010202
0.0085941
0.0073152
0.0057345
0.0043664
0.0024901
0.0012483
-0.00036884
-0.0018909
-0.0033943
-0.0047484
-0.0062084
-0.0077154
-0.0088177
-0.0098361
-0.010671
-0.011573
-0.012718
-0.013483
-0.014225
-0.015336
-0.01664
-0.01753
-0.018824
-0.020468
-0.021987
-0.023805
-0.025736
-0.027113
-0.028718
-0.029674
-0.030449
-0.031128
-0.031491
-0.031524
-0.031526
-0.031536
-0.031285
-0.031212
-0.030984
-0.03066
-0.030698
-0.030492
-0.030768
-0.031024
-0.031373
-0.031802
-0.032559
-0.033591
-0.034939
-0.036403
-0.037706
-0.039609
-0.041739
-0.043831
-0.046009
-0.048686
-0.051345
-0.053872
-0.056677
-0.059549
-0.062273
-0.064711
-0.066855
-0.068391
-0.070017
-0.070969
-0.071946
-0.07311
-0.073813
-0.074541
-0.074933
-0.075441
-0.075637
-0.075356
-0.075391
-0.075088
-0.074593
-0.073855
-0.073093
-0.072421
-0.071757
-0.07115
-0.070778
-0.070301
-0.069579
-0.068947
-0.068126
-0.067078
-0.066176
-0.065266
-0.064457
-0.063488
-0.062625
-0.06155
-0.060566
-0.05936
-0.057792
-0.056549
-0.054861
-0.053581
-0.051839
-0.050195
-0.048388
-0.046581
-0.045047
-0.042711
-0.040733
-0.03813
-0.035636
-0.033008
-0.030557
-0.027984
-0.025667
-0.022845
-0.020354
-0.01784
-0.015187
-0.012518
-0.0096455
-0.006518
-0.0035666
-0.00065988
0.0022185
0.0052997
0.0080125
0.010848
0.013637
0.016073
0.018535
0.02123
0.023435
0.026004
0.027753
0.029582
0.031604
0.03303
0.035041
0.036648
0.037988
0.039538
0.041021
0.042212
0.0439
0.044923
0.045816
0.046784
0.047714
0.048478
0.049501
0.05047
0.051719
0.052872
0.053954
0.055326
0.056133
0.056446
0.056885
0.057041
0.056634
0.056928
0.056704
0.056743
0.056527
0.056711
0.056453
0.056275
0.056025
0.05532
0.054745
0.054139
0.053249
0.052627
0.052352
0.052022
0.051705
0.051549
0.051618
0.051652
0.051849
0.052172
0.052122
0.052173
0.052123
0.051905
0.051979
0.051776
0.051329
0.050801
0.050272
0.049843
0.049225
0.048948
0.049085
0.04905
0.049325
0.049486
0.049795
0.050078
0.05066
0.050774
0.051006
0.051079
0.051084
0.050868
0.050827
0.0503
0.049704
0.04904
0.048452
0.047408
0.046657
0.045508
0.044627
0.043194
0.041865
0.04054
0.039011
0.037486
0.036488
0.035332
0.034772
0.034177
0.033274
0.032863
0.032864
0.032503
0.032499
0.03226
0.032065
0.031657
0.031383
0.030914
0.030418
0.030114
0.029475
0.028861
0.027907
0.027553
0.026772
0.025796
0.025405
0.024587
0.024242
0.023999
0.023579
0.023013
0.022352
0.021555
0.020586
0.019593
0.018691
0.018031
0.017673
0.017279
0.016564
0.015825
0.015391
0.0144
0.013607
0.012737
0.012329
0.012015
0.011368
0.010922
0.010689
0.01081
0.010718
0.01097
0.011375
0.012051
0.012689
0.01348
0.014363
0.014956
0.015716
0.016245
0.016803
0.017041
0.017218
0.017044
0.016354
0.015864
0.015218
0.014428
0.01357
0.012519
0.012018
0.011606
0.010973
0.010603
0.010289
0.0095638
0.0093201
0.0085195
0.0079375
0.0074974
0.0074385
0.0075675
0.0077256
0.0084634
0.0087642
0.0097073
0.01069
0.011665
0.012465
0.013281
0.013919
0.014595
0.01488
0.015152
0.014756
0.014818
0.014312
0.013877
0.013212
0.012524
0.011864
0.011069
0.010215
0.0087699
0.007468
0.0058564
0.004361
0.0027734
0.0015663
8.22E-05
-0.0010735
-0.0018997
-0.0029185
-0.0031461
-0.0029055
-0.0025787
-0.0020863
-0.0014534
-0.00041053
0.00071879
0.0017833
0.0031393
0.0046199
0.0059685
0.0076353
0.009318
0.011
0.012788
0.014084
0.015561
0.016765
0.017335
0.017832
0.018221
0.018281
0.017917
0.017304
0.016223
0.015275
0.013411
0.01172
0.0094348
0.0065878
0.0037678
0.00030419
-0.0029043
-0.0067168
-0.010423
-0.014254
-0.018243
-0.022263
-0.026297
-0.030007
-0.033787
-0.037156
-0.04036
-0.043372
-0.046064
-0.047931
-0.049767
-0.051453
-0.052698
-0.053365
-0.054077
-0.054087
-0.053302
-0.05244
-0.050979
-0.049155
-0.046928
-0.04461
-0.041841
-0.038919
-0.036298
-0.033267
-0.030081
-0.026515
-0.023224
-0.019696
-0.016452
-0.013029
-0.010394
-0.0076672
-0.005129
-0.0026034
-0.00042095
0.001389
0.0029553
0.0044351
0.0055437
0.0064639
0.0074871
0.0084369
0.0093331
0.010155
0.010634
0.011278
0.01147
0.011384
0.011312
0.01103
0.010301
0.0098269
0.0091902
0.0086372
0.0079377
0.0076902
0.0069824
0.0062259
0.0059945
0.0051668
0.0045561
0.003934
0.0031819
0.0029629
0.0023125
0.0019787
0.0018106
0.001795
0.001951
0.0023486
0.0027405
0.0035845
0.0040548
0.0047968
0.0051377
0.0053925
0.0053551
0.0051051
0.0042277
0.0028024
0.00076198
-0.0020429
-0.0058648
-0.010674
-0.016312
-0.022955
-0.031125
-0.040425
-0.050333
-0.060971
-0.072686
-0.084812
-0.097261
-0.10991
-0.12267
-0.13517
-0.14744
-0.15905
-0.17015
-0.1803
-0.18951
-0.19687
-0.20205
-0.20461
-0.20476
-0.20237
-0.19691
-0.18914
-0.17881
-0.16656
-0.15224
-0.1358
-0.11783
-0.098037
-0.076712
-0.054182
-0.029958
-0.0044296
0.022088
0.049103
0.075438
0.10087
0.12567
0.1486
0.16907
0.18754
0.20343
0.21649
0.22726
0.23518
0.24002
0.2419
0.24112
0.23733
0.2308
0.22198
0.21033
0.19657
0.18097
0.16396
0.14544
0.12615
0.1063
0.08706
0.068617
0.050493
0.033847
0.018739
0.0052604
-0.0063346
-0.015714
-0.022947
-0.028353
-0.031874
-0.033177
-0.033382
-0.031725
-0.028716
-0.025224
-0.020811
-0.015704
-0.010474
-0.0047782
0.00085935
0.0065504
0.012154
0.017079
0.021572
0.025154
0.02825
0.030428
0.031889
0.03272
0.032791
0.032464
0.031528
0.029968
0.028077
0.026364
0.024176
0.022005
0.019629
0.017342
0.015396
0.01332
0.011476
0.0097653
0.0082395
0.0073283
0.0061526
0.0055455
0.0050858
0.0048604
0.0048922
0.0052187
0.0054424
0.005722
0.0059547
0.0061375
0.0065704
0.0070737
0.0077391
0.0083955
0.0095961
0.010876
0.012001
0.013159
0.014209
0.014996
0.015585
0.016066
0.016251
0.016206
0.015959
0.015633
0.015227
0.015042
0.014877
0.014515
0.014063
0.013746
0.013464
0.012612
0.01202
0.011218
0.010382
0.0089024
0.0076673
0.0064064
0.0052157
0.0043538
0.0035893
0.0029508
0.0029443
0.0029084
0.0030297
0.0030497
0.0031096
0.0027281
0.0022277
0.0021218
0.0015194
0.0012065
0.00080828
0.00026604
-9.17E-05
-0.00031091
-0.00077377
-0.0014478
-0.0018981
-0.0028526
-0.0038529
-0.0052726
-0.0065885
-0.0078091
-0.0092139
-0.01063
-0.01195
-0.013162
-0.014138
-0.015357
-0.016755
-0.01758
-0.01858
-0.019693
-0.020721
-0.021666
-0.022388
-0.022794
-0.023684
-0.024568
-0.025411
-0.02604
-0.026713
-0.027693
-0.028936
-0.030042
-0.03131
-0.032873
-0.034697
-0.036559
-0.038589
-0.040435
-0.04229
-0.044262
-0.046345
-0.048295
-0.050593
-0.052308
-0.054195
-0.055835
-0.057169
-0.058128
-0.058949
-0.059575
-0.059992
-0.060225
-0.060166
-0.060164
-0.05936
-0.05874
-0.057751
-0.056879
-0.055681
-0.054262
-0.05261
-0.051428
-0.050186
-0.049152
-0.048342
-0.047988
-0.048108
-0.04799
-0.048532
-0.048845
-0.049008
-0.048979
-0.049099
-0.049044
-0.049089
-0.049042
-0.049114
-0.049237
-0.04937
-0.049148
-0.048996
-0.048637
-0.04795
-0.047085
-0.046026
-0.044522
-0.042747
-0.04038
-0.037872
-0.035563
-0.032872
-0.030291
-0.027402
-0.02454
-0.021806
-0.019198
-0.01673
-0.014219
-0.011702
-0.0091822
-0.0063843
-0.0035203
-0.00081469
0.0021188
0.0043097
0.0068673
0.0089871
0.011218
0.012888
0.014873
0.016687
0.01867
0.020622
0.022775
0.025046
0.026628
0.028508
0.03
0.031567
0.033368
0.034921
0.03629
0.038381
0.040027
0.041937
0.043706
0.045297
0.046633
0.048424
0.050085
0.051496
0.053168
0.05454
0.056062
0.057595
0.058799
0.060045
0.061014
0.062158
0.063041
0.063737
0.064488
0.064767
0.065171
0.065313
0.065918
0.066742
0.067464
0.068129
0.068912
0.069407
0.070164
0.070509
0.070927
0.071613
0.071869
0.07223
0.072578
0.072823
0.072898
0.072878
0.072785
0.072758
0.072666
0.072512
0.072449
0.072418
0.072527
0.072535
0.072654
0.072543
0.072635
0.073115
0.073401
0.073737
0.074009
0.074266
0.074541
0.074625
0.074873
0.075276
0.075413
0.075411
0.075472
0.075736
0.076169
0.075857
0.075231
0.074265
0.0732
0.071926
0.07113
0.070119
0.069053
0.068091
0.06714
0.066161
0.065357
0.064886
0.064427
0.064062
0.064027
0.063617
0.063332
0.062962
0.062577
0.061691
0.061416
0.060629
0.060054
0.059417
0.058706
0.058172
0.057457
0.056981
0.056305
0.055661
0.05549
0.055083
0.054609
0.053891
0.05334
0.052809
0.052374
0.05204
0.051637
0.051377
0.051395
0.051253
0.051172
0.051069
0.050864
0.050444
0.05002
0.049665
0.049064
0.048325
0.047549
0.047038
0.046634
0.04591
0.045684
0.045257
0.044795
0.044964
0.044823
0.044828
0.044986
0.04505
0.045034
0.045185
0.045193
0.04493
0.044685
0.04442
0.044086
0.043512
0.043359
0.043264
0.043296
0.042946
0.042958
0.042973
0.042613
0.042629
0.042595
0.042703
0.043013
0.043638
0.044028
0.044925
0.045552
0.046201
0.047449
0.048424
0.049541
0.050589
0.051434
0.052041
0.052073
0.05213
0.052109
0.051957
0.051667
0.051087
0.050191
0.049578
0.048743
0.047843
0.047021
0.046089
0.045401
0.045023
0.044667
0.044343
0.044537
0.044746
0.045259
0.045983
0.046818
0.047828
0.049236
0.050578
0.051925
0.053268
0.054745
0.055678
0.056566
0.057157
0.057393
0.057361
0.056903
0.056373
0.05584
0.055056
0.053868
0.052856
0.05152
0.050433
0.049271
0.048013
0.046443
0.045425
0.044645
0.043565
0.043087
0.042932
0.04255
0.043263
0.044134
0.045422
0.046571
0.047846
0.049353
0.050796
0.052017
0.053231
0.054598
0.055557
0.056423
0.057463
0.058382
0.058869
0.059177
0.059147
0.058971
0.058416
0.057699
0.056984
0.056267
0.055076
0.054007
0.053118
0.052169
0.051532
0.050945
0.050169
0.049305
0.048458
0.047965
0.047029
0.045919
0.045057
0.044241
0.042948
0.041311
0.039498
0.037321
0.034706
0.031718
0.028569
0.02558
0.022372
0.018936
0.01594
0.012971
0.0098953
0.0071585
0.0045593
0.0022198
0.00067283
-0.00067562
-0.0014651
-0.0017981
-0.0012339
-0.00036793
0.0012349
0.0033094
0.006285
0.0095876
0.01303
0.017553
0.022023
0.026608
0.031459
0.03591
0.040325
0.044209
0.048107
0.051534
0.05431
0.056493
0.05871
0.060214
0.061141
0.061749
0.06243
0.062291
0.062027
0.061782
0.061246
0.060068
0.05946
0.058423
0.057329
0.056397
0.055707
0.055376
0.054946
0.054726
0.054824
0.054727
0.054541
0.054421
0.054413
0.054333
0.054508
0.054841
0.055113
0.055402
0.055856
0.056124
0.056731
0.056931
0.057051
0.05692
0.05646
0.056342
0.056404
0.056444
0.056355
0.056432
0.056519
0.056404
0.05588
0.055037
0.053752
0.051703
0.049385
0.046685
0.043204
0.039069
0.034089
0.028292
0.021494
0.013635
0.0050887
-0.0041356
-0.014376
-0.025366
-0.036169
-0.04767
-0.059201
-0.071058
-0.082792
-0.094537
-0.10595
-0.11677
-0.12684
-0.13581
-0.1433
-0.14932
-0.15285
-0.15403
-0.15252
-0.14848
-0.14182
-0.13299
-0.12236
-0.10961
-0.095092
-0.078831
-0.061046
-0.041402
-0.020132
0.002552
0.027038
0.05261
0.078642
0.10484
0.13142
0.15617
0.1795
0.20075
0.22013
0.23661
0.25081
0.26239
0.27113
0.27743
0.28044
0.28062
0.27836
0.27304
0.26466
0.25385
0.24078
0.2256
0.20896
0.19068
0.17165
0.15207
0.13212
0.11291
0.09426
0.077172
0.061821
0.047563
0.035387
0.025446
0.017762
0.011889
0.0078912
0.0057078
0.0052721
0.0060435
0.0082264
0.011428
0.015389
0.020181
0.025219
0.030205
0.035178
0.039963
0.044119
0.048307
0.051607
0.054247
0.056082
0.057609
0.058457
0.058742
0.058389
0.057629
0.056374
0.055151
0.053851
0.052122
0.050332
0.04883
0.046996
0.045822
0.044611
0.044192
0.043856
0.043667
0.044001
0.044054
0.043899
0.043986
0.043926
0.044013
0.044088
0.044317
0.044329
0.044631
0.044457
0.044653
0.044473
0.044485
0.044494
0.044201
0.043786
0.043005
0.042372
0.041654
0.04094
0.040221
0.039191
0.038258
0.03751
0.03687
0.036384
0.036145
0.035868
0.035996
0.036162
0.035978
0.035951
0.035766
0.035595
0.035478
0.035239
0.035272
0.035108
0.034709
0.034365
0.033536
0.032855
0.032154
0.031616
0.030747
0.029805
0.02885
0.027626
0.026861
0.026018
0.02494
0.023898
0.023153
0.022728
0.022468
0.022439
0.022762
0.022981
0.023172
0.023497
0.023547
0.023242
0.022655
0.02206
0.02149
0.020692
0.020007
0.019148
0.017729
0.016912
0.015793
0.014336
0.012844
0.011191
0.0095684
0.0080337
0.0067798
0.0055427
0.0047346
0.0035488
0.0024706
0.0018444
0.00088699
0.00013609
-0.00072328
-0.0011009
-0.0017695
-0.0022444
-0.0027199
-0.0029992
-0.0030137
-0.0031958
-0.0038924
-0.0045007
-0.0050334
-0.0061998
-0.0072678
-0.0085025
-0.0098996
-0.010913
-0.012089
-0.013106
-0.014168
-0.015138
-0.016233
-0.017084
-0.018089
-0.019353
-0.020662
-0.021961
-0.023295
-0.024969
-0.026142
-0.027342
-0.028571
-0.029769
-0.030884
-0.03216
-0.033185
-0.033997
-0.035212
-0.036052
-0.036879
-0.03763
-0.037899
-0.038274
-0.038594
-0.038482
-0.038492
-0.03829
-0.038066
-0.037792
-0.037509
-0.037048
-0.036345
-0.03593
-0.034872
-0.034008
-0.033246
-0.032272
-0.03124
-0.030353
-0.029057
-0.027711
-0.026398
-0.02488
-0.023294
-0.021553
-0.019441
-0.017682
-0.015984
-0.013595
-0.011361
-0.0091328
-0.0062331
-0.0033502
-0.0004082
0.002426
0.0054104
0.0085636
0.011371
0.014576
0.017516
0.020568
0.023371
0.026576
0.029513
0.032653
0.036011
0.038565
0.041358
0.044041
0.046311
0.048556
0.05099
0.0529
0.054927
0.056828
0.058642
0.060489
0.062071
0.063957
0.065831
0.067265
0.068595
0.069811
0.071085
0.071932
0.072947
0.07345
0.074398
0.07522
0.075615
0.076203
0.076496
0.077012
0.077565
0.078079
0.078463
0.078935
0.0793
0.079891
0.080047
0.080087
0.08012
0.080164
0.080152
0.080148
0.08021
0.080044
0.080147
0.079943
0.080138
0.080254
0.08046
0.080727
0.08081
0.081144
0.081324
0.081963
0.082447
0.082816
0.083359
0.083832
0.08398
0.084158
0.084726
0.084828
0.085244
0.085407
0.085334
0.085112
0.084559
0.084055
0.083287
0.082099
0.081193
0.080381
0.079805
0.078385
0.076982
0.075577
0.074199
0.072587
0.071281
0.070319
0.069711
0.069061
0.068533
0.067953
0.066721
0.065914
0.065058
0.064339
0.064139
0.063944
0.064018
0.064169
0.064044
0.06369
0.063521
0.062907
0.06282
0.062436
0.062373
0.062113
0.061905
0.061866
0.061919
0.061823
0.062002
0.06206
0.061859
0.062269
0.062449
0.062376
0.062445
0.062294
0.062119
0.062073
0.061801
0.061405
0.060419
0.059282
0.057991
0.05667
0.055528
0.054377
0.053167
0.052181
0.051611
0.050546
0.05023
0.050035
0.050032
0.050056
0.050164
0.050697
0.05081
0.051216
0.050996
0.051101
0.051424
0.051532
0.051844
0.052209
0.052677
0.052737
0.053006
0.053196
0.052717
0.052031
0.051314
0.05031
0.049197
0.048135
0.04746
0.046522
0.045913
0.045083
0.044339
0.043702
0.042845
0.042185
0.041887
0.041947
0.041852
0.042022
0.042043
0.042442
0.042549
0.04247
0.042588
0.042726
0.043062
0.043305
0.043634
0.044119
0.044077
0.044234
0.044555
0.045144
0.045365
0.045913
0.046108
0.046607
0.046627
0.046376
0.046834
0.046517
0.046465
0.046551
0.046631
0.046692
0.046699
0.046918
0.047122
0.04733
0.047212
0.04747
0.047851
0.047944
0.048372
0.04903
0.0495
0.050438
0.05086
0.052
0.052524
0.053033
0.053443
0.053829
0.054151
0.054157
0.054549
0.054586
0.054386
0.054218
0.054043
0.05331
0.052307
0.051538
0.050881
0.049691
0.049057
0.048314
0.047509
0.047044
0.0463
0.045862
0.045288
0.044903
0.044527
0.044499
0.044288
0.044339
0.044509
0.044923
0.045512
0.045785
0.04653
0.046983
0.047493
0.048077
0.048769
0.049268
0.049741
0.049988
0.050631
0.050882
0.051282
0.051634
0.052003
0.052299
0.052522
0.052542
0.052653
0.052359
0.051821
0.051205
0.050706
0.050083
0.049494
0.049215
0.048551
0.047991
0.04754
0.046974
0.046184
0.045703
0.044948
0.044445
0.044184
0.044176
0.044478
0.044554
0.044768
0.045111
0.045279
0.045428
0.045683
0.045974
0.046099
0.046155
0.046393
0.046861
0.047031
0.046987
0.046906
0.046694
0.046475
0.045911
0.045472
0.045067
0.044591
0.044204
0.043741
0.042871
0.042603
0.042107
0.041415
0.041058
0.040754
0.040483
0.040529
0.040345
0.04062
0.040549
0.040789
0.040743
0.040936
0.041137
0.04113
0.041207
0.041129
0.040986
0.041183
0.040984
0.04087
0.040743
0.040553
0.040522
0.039931
0.039911
0.039283
0.038808
0.038305
0.037877
0.037489
0.037299
0.036768
0.036596
0.03634
0.036216
0.036247
0.036604
0.037019
0.037664
0.038316
0.038747
0.039392
0.0394
0.039558
0.039785
0.039558
0.039405
0.039508
0.039202
0.039078
0.03864
0.038115
0.037699
0.037198
0.036388
0.035854
0.035317
0.034514
0.033884
0.033092
0.032469
0.032166
0.031434
0.031137
0.030689
0.030439
0.030244
0.030124
0.030349
0.030677
0.031019
0.031185
0.031513
0.031717
0.03209
0.032356
0.03249
0.033164
0.033917
0.034453
0.035312
0.036031
0.037072
0.038185
0.039107
0.039934
0.041141
0.041633
0.042081
0.042715
0.042975
0.043369
0.043731
0.043444
0.043373
0.043043
0.042463
0.041996
0.04108
0.039982
0.038513
0.036781
0.034569
0.032339
0.029722
0.026828
0.024013
0.021048
0.017906
0.014694
0.011813
0.0086125
0.0054247
0.0022823
-0.00096497
-0.0036981
-0.0066901
-0.0094076
-0.011943
-0.014003
-0.015773
-0.017056
-0.018463
-0.01932
-0.019534
-0.019453
-0.019174
-0.018047
-0.0166
-0.014649
-0.012649
-0.010363
-0.0074136
-0.0043377
-0.0015004
0.0016611
0.004813
0.0077799
0.011126
0.014062
0.017229
0.020124
0.022754
0.025089
0.026886
0.028217
0.029576
0.030725
0.031387
0.031791
0.032186
0.032179
0.031735
0.030992
0.029806
0.028823
0.027622
0.026545
0.025629
0.024835
0.024049
0.023491
0.02294
0.022502
0.022307
0.022439
0.02264
0.022934
0.023381
0.023954
0.024537
0.025531
0.026779
0.027387
0.028191
0.029258
0.030375
0.031103
0.031466
0.031692
0.031431
0.030737
0.029693
0.028692
0.027357
0.025521
0.023638
0.021158
0.018165
0.014394
0.010054
0.0051555
-0.00073849
-0.0073683
-0.01517
-0.023477
-0.032739
-0.042447
-0.053006
-0.063957
-0.074821
-0.086589
-0.098468
-0.11072
-0.12294
-0.13475
-0.14638
-0.1569
-0.16625
-0.17419
-0.18008
-0.18359
-0.18421
-0.18213
-0.17739
-0.17009
-0.16015
-0.14897
-0.13585
-0.12127
-0.10553
-0.088187
-0.069753
-0.049952
-0.02879
-0.0063435
0.017017
0.040789
0.06493
0.087891
0.11
0.1305
0.1492
0.16551
0.17971
0.19165
0.20154
0.20897
0.21428
0.21719
0.2178
0.21602
0.21136
0.20465
0.19582
0.18417
0.17139
0.1566
0.14069
0.12381
0.10649
0.089173
0.07219
0.055444
0.039801
0.025532
0.012749
0.0021433
-0.0066252
-0.013447
-0.01845
-0.021267
-0.022436
-0.021818
-0.019437
-0.016171
-0.011574
-0.0063678
-0.00051353
0.0057078
0.011795
0.017556
0.022874
0.02784
0.032532
0.036019
0.038801
0.040893
0.042419
0.043016
0.042918
0.042305
0.04085
0.039351
0.036977
0.034891
0.032823
0.030503
0.028392
0.026616
0.024726
0.023295
0.02163
0.020469
0.019744
0.018693
0.01828
0.018123
0.018273
0.018683
0.019584
0.020611
0.021369
0.02228
0.023047
0.023142
0.02367
0.02377
0.023769
0.023728
0.023445
0.023101
0.02257
0.022268
0.021409
0.020643
0.019391
0.018467
0.017619
0.016565
0.01552
0.014724
0.013872
0.013428
0.012811
0.012735
0.012843
0.013078
0.013699
0.013989
0.014557
0.01507
0.015194
0.015554
0.015698
0.015612
0.015727
0.015496
0.015315
0.01522
0.015142
0.014738
0.014437
0.013888
0.013477
0.013017
0.012605
0.012219
0.011613
0.011397
0.01117
0.010937
0.010753
0.010464
0.010553
0.010392
0.010395
0.010238
0.0099301
0.0095024
0.008977
0.0084612
0.0077236
0.0070729
0.0060119
0.0053267
0.0039239
0.0028613
0.0018283
0.0006781
-0.00030022
-0.0013728
-0.0025152
-0.0033146
-0.004159
-0.0051554
-0.0059419
-0.0066927
-0.0073399
-0.0079451
-0.0084251
-0.0089018
-0.0093411
-0.0098193
-0.010543
-0.011127
-0.011804
-0.01246
-0.012996
-0.013638
-0.014379
-0.014935
-0.015839
-0.016614
-0.017867
-0.018931
-0.019948
-0.020976
-0.021798
-0.022854
-0.023753
-0.024409
-0.025597
-0.026691
-0.027833
-0.028928
-0.029992
-0.031205
-0.032047
-0.033114
-0.034127
-0.034988
-0.035735
-0.036471
-0.037388
-0.038199
-0.038907
-0.040077
-0.040833
-0.041358
-0.041898
-0.042227
-0.042191
-0.042097
-0.041874
-0.041368
-0.041016
-0.040363
-0.039475
-0.038638
-0.037272
-0.03613
-0.0347
-0.033211
-0.031902
-0.030637
-0.029333
-0.027703
-0.02644
-0.025001
-0.023807
-0.022699
-0.021979
-0.021179
-0.02051
-0.019748
-0.018901
-0.018164
-0.017184
-0.01633
-0.015483
-0.014483
-0.013386
-0.01239
-0.011122
-0.0094848
-0.0079487
-0.0058277
-0.0036866
-0.0013534
0.0010914
0.0036814
0.0063791
0.0092893
0.012315
0.015261
0.018517
0.021587
0.024909
0.028035
0.030925
0.033912
0.036537
0.039165
0.041419
0.043702
0.045587
0.047401
0.048811
0.050143
0.051511
0.052627
0.053904
0.054924
0.055776
0.056393
0.057381
0.057873
0.058455
0.059329
0.060105
0.060946
0.061748
0.063032
0.06413
0.065291
0.066145
0.067135
0.068356
0.069093
0.070092
0.070535
0.070905
0.071169
0.071234
0.071283
0.07126
0.070891
0.070739
0.070408
0.069766
0.069336
0.068942
0.068468
0.067599
0.067019
0.066592
0.066134
0.065708
0.06522
0.06499
0.06455
0.064199
0.064119
0.063808
0.063422
0.0635
0.062841
0.062412
0.062406
0.062028
0.062037
0.061673
0.06169
0.061675
0.061684
0.061655
0.061389
0.061339
0.061358
0.061301
0.061726
0.061824
0.061861
0.062239
0.062176
0.062293
0.062487
0.062419
0.062628
0.062437
0.062333
0.062089
0.061639
0.06133
0.060796
0.060405
0.059876
0.059289
0.05883
0.058178
0.057467
0.056603
0.056313
0.055821
0.055383
0.05542
0.054992
0.05479
0.05436
0.054202
0.053581
0.053221
0.052892
0.05241
0.052267
0.051737
0.051574
0.051412
0.05132
0.051157
0.050914
0.050721
0.050763
0.050325
0.050184
0.050147
0.049629
0.049164
0.048349
0.047777
0.047138
0.046603
0.045815
0.044925
0.044519
0.043572
0.042736
0.042309
0.041554
0.040944
0.04021
0.039765
0.038879
0.038528
0.037903
0.037453
0.037115
0.03667
0.036518
0.036493
0.036608
0.036963
0.037224
0.037612
0.038296
0.038851
0.039437
0.039691
0.040143
0.040531
0.040492
0.040896
0.040897
0.041067
0.041122
0.041073
0.041241
0.041371
0.04144
0.041598
0.041651
0.041634
0.041913
0.041791
0.041791
0.041555
0.041515
0.04112
0.040906
0.040781
0.040474
0.039957
0.039731
0.039665
0.03929
0.03936
0.03914
0.038957
0.039016
0.038677
0.038247
0.038086
0.037711
0.037542
0.037546
0.037296
0.037588
0.037666
0.037663
0.038092
0.03843
0.038824
0.039127
0.039118
0.039364
0.039245
0.03947
0.039014
0.039136
0.039164
0.039124
0.039004
0.039027
0.039138
0.039058
0.038779
0.039007
0.039199
0.039188
0.039419
0.03942
0.03982
0.039444
0.03951
0.039414
0.039095
0.039108
0.038991
0.038771
0.038624
0.038176
0.037862
0.03771
0.037473
0.037344
0.037152
0.036798
0.036593
0.036652
0.036232
0.036639
0.036688
0.036963
0.037098
0.037298
0.037638
0.037982
0.038163
0.038621
0.039283
0.039269
0.039684
0.039779
0.040168
0.040193
0.040357
0.040131
0.04002
0.039904
0.039999
0.040079
0.040334
0.040308
0.040647
0.041009
0.041118
0.041183
0.04126
0.041427
0.041555
0.041701
0.041787
0.042286
0.042337
0.04259
0.042605
0.042578
0.042413
0.042157
0.041761
0.041447
0.041224
0.040859
0.040495
0.040245
0.039954
0.039492
0.03867
0.038312
0.03788
0.037557
0.037153
0.036943
0.036769
0.036413
0.03636
0.036316
0.036663
0.036978
0.037422
0.037666
0.038416
0.039241
0.039846
0.040531
0.041302
0.042355
0.042787
0.044047
0.045116
0.04595
0.047215
0.048248
0.049094
0.049891
0.050289
0.050376
0.050576
0.050135
0.049785
0.049256
0.048328
0.047598
0.046252
0.044978
0.043658
0.041929
0.04016
0.037874
0.035449
0.033077
0.030449
0.027625
0.0246
0.021667
0.018751
0.015989
0.013086
0.010263
0.0078687
0.0053271
0.0028059
0.00043462
-0.0017125
-0.0034518
-0.0051706
-0.0065001
-0.0075765
-0.0085898
-0.0089123
-0.0093278
-0.0090413
-0.0084429
-0.0076533
-0.0061293
-0.004606
-0.002755
-0.00065895
0.0015309
0.0040101
0.0065946
0.0095118
0.01201
0.014976
0.017445
0.01983
0.022371
0.024638
0.026796
0.029155
0.031259
0.033168
0.034826
0.036241
0.037634
0.038631
0.039387
0.040112
0.040804
0.041027
0.041158
0.041198
0.041097
0.040604
0.04029
0.039876
0.039479
0.039196
0.038775
0.038354
0.038285
0.03804
0.037748
0.03761
0.037454
0.037409
0.037184
0.036941
0.036815
0.036681
0.036483
0.036275
0.035995
0.036055
0.036169
0.036254
0.036147
0.036004
0.035842
0.035275
0.034158
0.032876
0.031166
0.028756
0.025805
0.022296
0.017974
0.013264
0.007466
0.00095373
-0.0059476
-0.013981
-0.022775
-0.032565
-0.0428
-0.053636
-0.064817
-0.076688
-0.088443
-0.10029
-0.11229
-0.12367
-0.13463
-0.14483
-0.15377
-0.16091
-0.16625
-0.16882
-0.16906
-0.16622
-0.16063
-0.15233
-0.14172
-0.12897
-0.11448
-0.098411
-0.080592
-0.061524
-0.041085
-0.019601
0.0033403
0.027471
0.052384
0.077611
0.10275
0.1274
0.15103
0.17246
0.19201
0.20904
0.22395
0.23642
0.24632
0.25322
0.25789
0.26021
0.25946
0.25644
0.25125
0.24328
0.23325
0.2211
0.207
0.19141
0.17476
0.15684
0.13811
0.11979
0.10134
0.084394
0.0687
0.053726
0.040609
0.029201
0.019652
0.011837
0.0055915
0.0014621
-0.00088789
-0.0018086
-0.0011567
0.00066582
0.0036342
0.0074319
0.011878
0.017153
0.022462
0.027989
0.033123
0.037669
0.04196
0.045463
0.048362
0.050371
0.051388
0.052007
0.051984
0.051829
0.051529
0.050669
0.049932
0.048935
0.047358
0.045688
0.043752
0.041831
0.039789
0.037718
0.036005
0.034424
0.032982
0.031861
0.03083
0.030252
0.029488
0.029058
0.028427
0.028248
0.028019
0.02784
0.02795
0.027948
0.028185
0.028095
0.028524
0.029141
0.029458
0.0297
0.030094
0.030267
0.030192
0.030326
0.030474
0.030065
0.02969
0.029475
0.028978
0.028365
0.027921
0.027359
0.026823
0.02638
0.025941
0.025448
0.025247
0.025357
0.025291
0.025295
0.025376
0.025109
0.024884
0.024839
0.024541
0.024165
0.023943
0.023916
0.023435
0.023467
0.023411
0.023124
0.022863
0.022587
0.022412
0.02201
0.021466
0.020512
0.019217
0.018625
0.017556
0.01643
0.015585
0.014804
0.013776
0.013409
0.013065
0.013021
0.012754
0.012946
0.012958
0.012871
0.012551
0.012095
0.011805
0.011309
0.010978
0.010249
0.0096196
0.0088513
0.0080816
0.0070782
0.0059478
0.0043884
0.0028221
0.0011843
-0.00047868
-0.0025502
-0.0047069
-0.0071665
-0.0097742
-0.012079
-0.014185
-0.016114
-0.018103
-0.019642
-0.021408
-0.023015
-0.02436
-0.025763
-0.026734
-0.027946
-0.028758
-0.029653
-0.030651
-0.031235
-0.032149
-0.032791
-0.033845
-0.034259
-0.034542
-0.035707
-0.036419
-0.037479
-0.038449
-0.039573
-0.040482
-0.04124
-0.04209
-0.042745
-0.04331
-0.043869
-0.044533
-0.044918
-0.045289
-0.04582
-0.045899
-0.046021
-0.045893
-0.045654
-0.045122
-0.044148
-0.043265
-0.042409
-0.041506
-0.040822
-0.03977
-0.039
-0.037795
-0.037074
-0.036127
-0.035122
-0.033865
-0.032919
-0.031993
-0.03106
-0.030481
-0.029896
-0.029262
-0.028809
-0.028324
-0.028062
-0.027486
-0.02685
-0.025997
-0.024949
-0.023482
-0.022025
-0.020386
-0.018474
-0.016582
-0.014158
-0.011546
-0.0085541
-0.005954
-0.0029426
9.88E-05
0.0032687
0.0064786
0.009532
0.012361
0.015535
0.018815
0.021567
0.024224
0.026955
0.029655
0.032223
0.03497
0.037202
0.039551
0.041601
0.043786
0.045635
0.047598
0.049454
0.051026
0.052772
0.054488
0.055979
0.05789
0.059447
0.061039
0.062976
0.064299
0.065327
0.066456
0.067308
0.068267
0.068884
0.069692
0.070241
0.070572
0.070784
0.071209
0.07142
0.071733
0.072277
0.072689
0.073318
0.073482
0.073803
0.073659
0.073302
0.073536
0.073142
0.073228
0.073105
0.072921
0.072937
0.072294
0.071857
0.071601
0.071399
0.070875
0.070655
0.070329
0.070218
0.069828
0.069607
0.068915
0.068745
0.06834
0.067904
0.067677
0.067467
0.067511
0.067596
0.068123
0.068529
0.069146
0.069546
0.06991
0.070411
0.070748
0.070876
0.071148
0.071329
0.071873
0.071936
0.072491
0.072608
0.072718
0.073153
0.072881
0.073044
0.072582
0.072202
0.071555
0.070826
0.070126
0.068963
0.067635
0.066691
0.0656
0.064418
0.06349
0.062345
0.061458
0.060431
0.059665
0.058574
0.057852
0.057209
0.056367
0.055911
0.055342
0.055252
0.055442
0.055196
0.055087
0.054983
0.054944
0.05474
0.054704
0.054632
0.054324
0.054154
0.054131
0.053563
0.053408
0.052671
0.052225
0.051412
0.050473
0.050198
0.049108
0.049007
0.048758
0.047791
0.047847
0.047474
0.047006
0.046651
0.046277
0.046067
0.04582
0.046241
0.046439
0.046892
0.047755
0.048407
0.049094
0.049082
0.049241
0.048955
0.048501
0.047667
0.047076
0.046564
0.046128
0.045731
0.045516
0.045561
0.045357
0.045081
0.044671
0.044507
0.044175
0.043386
0.04318
0.043142
0.043253
0.043154
0.043525
0.043894
0.04405
0.044545
0.044714
0.044793
0.045104
0.045668
0.046032
0.046331
0.046612
0.046691
0.046714
0.046635
0.046431
0.046214
0.046516
0.046279
0.046599
0.046498
0.046372
0.046373
0.046218
0.046278
0.046189
0.046291
0.046131
0.046108
0.046201
0.046208
0.04627
0.046138
0.045914
0.045712
0.045324
0.04523
0.044807
0.044773
0.044573
0.044766
0.044898
0.045025
0.045219
0.045355
0.045471
0.045905
0.04614
0.046354
0.046641
0.046757
0.047233
0.047303
0.047596
0.047807
0.047537
0.047496
0.047671
0.047677
0.047554
0.047803
0.047996
0.047975
0.048123
0.048415
0.048587
0.048667
0.048511
0.048565
0.048342
0.048266
0.047977
0.047976
0.048206
0.048314
0.048421
0.048575
0.048965
0.049037
0.049257
0.049581
0.049787
0.050279
0.050882
0.051228
0.051544
0.051857
0.05199
0.051688
0.050998
0.050229
0.049277
0.048578
0.047867
0.047431
0.047104
0.046783
0.046252
0.04585
0.045165
0.044293
0.043563
0.042774
0.042073
0.041765
0.041731
0.041786
0.04205
0.04241
0.04303
0.043732
0.044532
0.045152
0.045968
0.046594
0.047366
0.047998
0.048957
0.04949
0.049826
0.050333
0.050507
0.050493
0.050507
0.050226
0.050053
0.049834
0.04979
0.049599
0.049553
0.049591
0.049784
0.0499
0.050034
0.050211
0.0503
0.050346
0.050465
0.050512
0.050875
0.05117
0.051402
0.051635
0.051972
0.052273
0.052205
0.052481
0.052409
0.052686
0.052626
0.052906
0.053319
0.053124
0.05349
0.053468
0.053255
0.053283
0.053012
0.052806
0.052681
0.052649
0.052224
0.052207
0.051243
0.050253
0.049342
0.047781
0.04638
0.045004
0.043302
0.041168
0.038895
0.036422
0.03385
0.030874
0.02787
0.024505
0.021172
0.018114
0.014895
0.011924
0.0093699
0.0068781
0.0048056
0.0030181
0.0010153
-0.00059166
-0.0020902
-0.0034756
-0.0044328
-0.0051975
-0.005818
-0.0055265
-0.0049372
-0.0038777
-0.0023453
-0.00071075
0.0012523
0.0036209
0.0063653
0.0092294
0.01262
0.015794
0.019422
0.023034
0.026352
0.02988
0.033024
0.036507
0.040056
0.04342
0.046359
0.048903
0.051131
0.05282
0.054313
0.055402
0.055956
0.056309
0.055982
0.055693
0.054986
0.054239
0.052974
0.051857
0.050901
0.049741
0.048876
0.047475
0.046738
0.046208
0.045419
0.044877
0.044471
0.044454
0.044169
0.044533
0.0452
0.04577
0.04675
0.047861
0.048902
0.049787
0.051038
0.051436
0.051873
0.052131
0.051983
0.051614
0.050795
0.049477
0.047887
0.045938
0.043618
0.040641
0.037285
0.032812
0.027845
0.021623
0.014506
0.0064774
-0.002416
-0.012286
-0.022348
-0.03316
-0.044522
-0.055682
-0.067182
-0.078635
-0.08999
-0.10123
-0.11247
-0.12301
-0.13298
-0.14198
-0.14914
-0.15438
-0.15725
-0.15789
-0.15572
-0.15065
-0.14338
-0.13331
-0.12149
-0.1072
-0.091176
-0.073663
-0.054241
-0.033443
-0.011173
0.012214
0.036718
0.06252
0.088425
0.11456
0.13996
0.16406
0.18667
0.20715
0.22515
0.24033
0.25297
0.26266
0.26948
0.27361
0.27487
0.27314
0.26888
0.26195
0.25267
0.24063
0.22677
0.21086
0.194
0.17572
0.1567
0.13726
0.11783
0.099204
0.081514
0.065303
0.049885
0.036121
0.024606
0.014964
0.0071173
0.0015814
-0.0020079
-0.0037547
-0.00376
-0.0027336
-0.00027837
0.0029514
0.0071948
0.012028
0.01711
0.022591
0.028024
0.033434
0.038824
0.043632
0.047538
0.051117
0.053917
0.056066
0.057912
0.058921
0.059168
0.059039
0.058374
0.05727
0.055843
0.054145
0.051789
0.049606
0.047122
0.044516
0.041871
0.039381
0.036922
0.034815
0.032717
0.031245
0.029705
0.028543
0.027341
0.026564
0.02583
0.025156
0.02507
0.024663
0.024445
0.024386
0.0247
0.024531
0.025296
0.025572
0.025797
0.026122
0.026235
0.026238
0.02621
0.026036
0.025822
0.025241
0.025145
0.024645
0.024151
0.023882
0.023291
0.022689
0.022655
0.022339
0.022353
0.022372
0.022311
0.022444
0.022548
0.022839
0.023016
0.023126
0.023336
0.023052
0.022895
0.022558
0.022388
0.0221
0.021581
0.021019
0.020578
0.019895
0.019279
0.018459
0.017594
0.016803
0.015726
0.014889
0.014174
0.013109
0.012633
0.012008
0.011563
0.011251
0.010967
0.010575
0.010385
0.010012
0.0096634
0.0092022
0.0087826
0.0080755
0.0076497
0.0068411
0.0059166
0.0049198
0.0035556
0.0023024
0.00061452
-0.00093536
-0.0024455
-0.0037897
-0.0056506
-0.0072382
-0.0088036
-0.010667
-0.012212
-0.014077
-0.015507
-0.01691
-0.01841
-0.019418
-0.020297
-0.021058
-0.021451
-0.022065
-0.022412
-0.022778
-0.023352
-0.023926
-0.024479
-0.025144
-0.026342
-0.027074
-0.028256
-0.029553
-0.030714
-0.03216
-0.033483
-0.035165
-0.036737
-0.038186
-0.040002
-0.041329
-0.042524
-0.043474
-0.04454
-0.045394
-0.045938
-0.046363
-0.046971
-0.04718
-0.047469
-0.047575
-0.047567
-0.047708
-0.047348
-0.047121
-0.046731
-0.04637
-0.045952
-0.045633
-0.045468
-0.045111
-0.044697
-0.044479
-0.043629
-0.043442
-0.042854
-0.042274
-0.041522
-0.040821
-0.03991
-0.038956
-0.037753
-0.036625
-0.035547
-0.034476
-0.033329
-0.031817
-0.030627
-0.02914
-0.027587
-0.026058
-0.024488
-0.022883
-0.020998
-0.019052
-0.017178
-0.014867
-0.012551
-0.010134
-0.0075464
-0.0046065
-0.001745
0.0011349
0.0044963
0.0080979
0.011343
0.015075
0.018498
0.022022
0.025456
0.028317
0.031528
0.034654
0.03758
0.040559
0.043498
0.046085
0.048274
0.050715
0.052141
0.053741
0.055232
0.056501
0.05791
0.059371
0.060664
0.062297
0.06363
0.064579
0.065844
0.066484
0.067227
0.068138
0.069186
0.070385
0.071021
0.072247
0.073264
0.074105
0.074504
0.075216
0.075562
0.075523
0.075779
0.075655
0.075971
0.076008
0.076252
0.076595
0.076882
0.077334
0.077226
0.077442
0.077653
0.077904
0.07806
0.078421
0.078403
0.078486
0.078773
0.078961
0.07922
0.079069
0.07896
0.079002
0.078785
0.078844
0.078637
0.078658
0.078536
0.078507
0.078122
0.077806
0.077936
0.077694
0.077238
0.077012
0.076993
0.076695
0.076134
0.076088
0.075896
0.075593
0.075191
0.074713
0.074371
0.074025
0.073665
0.073267
0.0729
0.072463
0.07201
0.071338
0.070794
0.07033
0.069188
0.068303
0.067196
0.066118
0.065928
0.064824
0.064326
0.063984
0.063674
0.063394
0.063295
0.063138
0.063139
0.063371
0.063246
0.063314
0.062985
0.062179
0.06182
0.061352
0.06115
0.060952
0.060586
0.06069
0.060332
0.059886
0.059452
0.058917
0.058268
0.057108
0.056108
0.054883
0.053656
0.052599
0.051217
0.050308
0.04971
0.048851
0.048165
0.047184
0.046231
0.045456
0.045098
0.044696
0.044171
0.044097
0.044143
0.044154
0.043776
0.043799
0.043242
0.042571
0.042151
0.041831
0.04159
0.041255
0.041185
0.041224
0.040933
0.040789
0.040431
0.040448
0.040374
0.039961
0.039855
0.039371
0.038879
0.03895
0.038789
0.03838
0.038118
0.038013
0.038029
0.038204
0.038483
0.038279
0.038812
0.038993
0.039322
0.039493
0.039635
0.039784
0.040524
0.040876
0.041459
0.041898
0.042452
0.042661
0.042963
0.043221
0.043523
0.043307
0.04336
0.043387
0.043449
0.043429
0.043583
0.043674
0.043987
0.04374
0.043337
0.04301
0.042633
0.042075
0.041708
0.041518
0.041337
0.041298
0.04151
0.041248
0.041078
0.041053
0.040769
0.040238
0.039856
0.038956
0.038224
0.037504
0.036875
0.036514
0.035925
0.035727
0.035796
0.035866
0.036223
0.036269
0.036903
0.037391
0.038029
0.039268
0.040044
0.041239
0.042023
0.042964
0.044201
0.045258
0.046076
0.046637
0.047175
0.047632
0.047736
0.047757
0.047743
0.047665
0.047449
0.047011
0.046818
0.046648
0.046233
0.046133
0.045897
0.045543
0.045413
0.045085
0.044942
0.044612
0.044492
0.044434
0.044591
0.044811
0.044948
0.045373
0.045574
0.045559
0.045593
0.044858
0.044591
0.043909
0.043054
0.042656
0.042322
0.041865
0.041768
0.041823
0.041893
0.041606
0.041722
0.041834
0.041371
0.041707
0.041566
0.04134
0.041522
0.041363
0.041417
0.041423
0.041402
0.041453
0.041216
0.041598
0.041857
0.042056
0.04263
0.043108
0.043814
0.044006
0.044365
0.044312
0.044418
0.044211
0.044343
0.044247
0.044358
0.044368
0.044415
0.044288
0.044105
0.044038
0.04394
0.043551
0.042942
0.042286
0.041434
0.040885
0.040168
0.039489
0.038938
0.038701
0.038651
0.038513
0.03867
0.039077
0.039467
0.039901
0.040604
0.041422
0.042062
0.042808
0.043577
0.044299
0.04472
0.044913
0.045288
0.045523
0.045791
0.046544
0.04696
0.047499
0.048409
0.049188
0.049874
0.050316
0.051047
0.051074
0.051405
0.051784
0.051726
0.052057
0.051998
0.052077
0.051879
0.051512
0.050903
0.050074
0.049119
0.047717
0.046326
0.044683
0.042198
0.039826
0.036997
0.033865
0.030492
0.027042
0.023631
0.020115
0.01669
0.0135
0.010351
0.0075786
0.0050599
0.0026606
0.00039358
-0.0015587
-0.0034248
-0.0050113
-0.0063516
-0.0076146
-0.0085506
-0.0089015
-0.0091763
-0.0090212
-0.0084697
-0.0076689
-0.0066045
-0.0049268
-0.00307
-0.0011026
0.0010468
0.00331
0.0061007
0.0089274
0.012082
0.015388
0.018465
0.021942
0.025461
0.028262
0.030623
0.033518
0.035778
0.037671
0.039541
0.041194
0.042928
0.044218
0.045531
0.046466
0.047441
0.047932
0.047817
0.047691
0.04738
0.046719
0.046421
0.045674
0.045058
0.044483
0.04394
0.043473
0.042845
0.04261
0.042361
0.042693
0.042597
0.042525
0.042285
0.042108
0.04153
0.041207
0.040558
0.040191
0.03966
0.038888
0.038194
0.037709
0.037558
0.036938
0.036475
0.035786
0.034483
0.033411
0.031995
0.030248
0.027502
0.02432
0.019801
0.014522
0.0080937
0.0008379
-0.0069176
-0.015798
-0.025344
-0.035232
-0.045841
-0.05689
-0.068347
-0.079927
-0.092138
-0.1045
-0.11665
-0.12842
-0.1396
-0.14968
-0.15789
-0.1641
-0.16797
-0.16924
-0.16771
-0.16341
-0.15632
-0.14666
-0.13471
-0.12106
-0.10564
-0.08875
-0.070648
-0.051303
-0.030148
-0.0085449
0.0149
0.039489
0.064803
0.089584
0.11441
0.13818
0.16028
0.18032
0.19783
0.21317
0.226
0.23653
0.24398
0.24979
0.25236
0.2528
0.25056
0.24577
0.23847
0.22865
0.21648
0.20207
0.18606
0.1689
0.15065
0.1317
0.1131
0.094631
0.077471
0.061309
0.045929
0.032147
0.01977
0.0099801
0.0016766
-0.0046982
-0.0090416
-0.011731
-0.012752
-0.012407
-0.010287
-0.0073655
-0.0036643
0.00089587
0.0060452
0.011143
0.016498
0.021535
0.02648
0.030906
0.034729
0.038111
0.040508
0.042616
0.043916
0.044588
0.044656
0.0444
0.043654
0.042798
0.04176
0.040727
0.039793
0.038577
0.037129
0.035563
0.033917
0.032314
0.031053
0.029079
0.027929
0.02674
0.025635
0.024528
0.023929
0.023213
0.022696
0.022332
0.021895
0.021563
0.021606
0.021244
0.021189
0.021115
0.021112
0.021491
0.021817
0.022013
0.02271
0.02348
0.023941
0.024719
0.025208
0.025428
0.025392
0.025888
0.025529
0.025345
0.025158
0.024634
0.02403
0.022987
0.022623
0.02145
0.020379
0.019392
0.018153
0.017133
0.015918
0.014681
0.013583
0.012478
0.011389
0.010762
0.0098579
0.0092686
0.0090502
0.0089
0.0087938
0.0087369
0.0090512
0.0089787
0.0092016
0.0089787
0.0089686
0.0090386
0.0086687
0.0083974
0.0081121
0.0075571
0.0070184
0.0066728
0.0059788
0.0055288
0.0049842
0.0042532
0.0035316
0.0026105
0.0017173
0.001096
0.00042804
3.02E-05
-0.00035233
-0.00090036
-0.0014069
-0.0020005
-0.0024414
-0.00287
-0.0032342
-0.0037092
-0.0041662
-0.0047536
-0.0049715
-0.005466
-0.0057486
-0.00602
-0.0063028
-0.0068066
-0.0076004
-0.0086749
-0.0095284
-0.010676
-0.01176
-0.012675
-0.014245
-0.015827
-0.017478
-0.018567
-0.020321
-0.021383
-0.022466
-0.023817
-0.02532
-0.026493
-0.027904
-0.029544
-0.031075
-0.032669
-0.034357
-0.036032
-0.037227
-0.038625
-0.039513
-0.040341
-0.040862
-0.04148
-0.042157
-0.042853
-0.043714
-0.044006
-0.044386
-0.044865
-0.0445
-0.044172
-0.043352
-0.042352
-0.041476
-0.040812
-0.040126
-0.039585
-0.038956
-0.038382
-0.03763
-0.036873
-0.03604
-0.034536
-0.033449
-0.032591
-0.031486
-0.030726
-0.030316
-0.029942
-0.0298
-0.029774
-0.029481
-0.029508
-0.029074
-0.028272
-0.027677
-0.026495
-0.025136
-0.023827
-0.021912
-0.019907
-0.017871
-0.015683
-0.013497
-0.010812
-0.0084082
-0.0057721
-0.003128
-0.00015929
0.0027352
0.0057776
0.0089347
0.012129
0.015705
0.018715
0.021808
0.024714
0.027377
0.029876
0.032378
0.034473
0.03658
0.038627
0.040661
0.042423
0.044139
0.045959
0.047675
0.049246
0.050575
0.052044
0.053419
0.054528
0.055732
0.057064
0.058403
0.059815
0.061558
0.062996
0.065091
0.066736
0.068643
0.070295
0.071739
0.07337
0.074541
0.075555
0.076426
0.077042
0.077845
0.07867
0.078801
0.078899
0.078941
0.078636
0.078652
0.078173
0.077716
0.077339
0.07652
0.075653
0.075023
0.074127
0.07344
0.072951
0.072604
0.072888
0.072874
0.073003
0.073266
0.073861
0.074362
0.074629
0.075004
0.075253
0.075644
0.076019
0.076566
0.076912
0.077411
0.078292
0.07892
0.079469
0.079871
0.079939
0.07996
0.080026
0.080032
0.07989
0.079845
0.079676
0.079707
0.079548
0.079359
0.079461
0.079427
0.079116
0.078635
0.078206
0.077201
0.076184
0.075183
0.073822
0.072374
0.070437
0.068796
0.066759
0.064759
0.062647
0.060464
0.057973
0.055505
0.053362
0.051261
0.049389
0.047751
0.046536
0.045858
0.045511
0.045606
0.046159
0.046463
0.047832
0.049138
0.050577
0.052356
0.054448
0.056997
0.059478
0.062291
0.06456
0.066913
0.068873
0.070318
0.071258
0.071437
0.071185
0.070457
0.069505
0.06794
0.06555
0.062949
0.060102
0.057103
0.054034
0.051054
0.048401
0.04624
0.044011
0.042411
0.041213
0.039995
0.039506
0.039441
0.039543
0.04016
0.041247
0.042909
0.04488
0.047462
0.05012
0.052564
0.055056
0.057696
0.059961
0.062087
0.064015
0.065564
0.066884
0.067825
0.06853
0.068542
0.068315
0.066846
0.065592
0.063621
0.061364
0.058798
0.056005
0.05304
0.049789
0.047149
0.044105
0.041103
0.038505
0.036086
0.034244
0.032972
0.032226
0.032205
0.032576
0.033254
0.034551
0.035819
0.037328
0.039242
0.041456
0.043804
0.046169
0.048611
0.051049
0.053125
0.055056
0.05626
0.056888
0.057278
0.056969
0.056678
0.055835
0.054486
0.053013
0.051439
0.049952
0.048627
0.047287
0.045974
0.045177
0.044683
0.044437
0.044781
0.045452
0.0466
0.04791
0.049794
0.051286
0.053007
0.054816
0.056445
0.05776
0.058938
0.059465
0.060059
0.060128
0.060267
0.06017
0.059611
0.059004
0.057561
0.056191
0.055055
0.053569
0.0521
0.050937
0.050059
0.049508
0.049325
0.049353
0.049527
0.049982
0.050837
0.051735
0.052862
0.054334
0.055867
0.057167
0.058738
0.060039
0.061199
0.062
0.062628
0.062917
0.0632
0.062831
0.062487
0.061767
0.060303
0.059076
0.057595
0.05576
0.054232
0.052672
0.051483
0.050139
0.049263
0.048049
0.047529
0.046763
0.046592
0.046531
0.046699
0.047207
0.04798
0.048979
0.050231
0.051669
0.053097
0.054861
0.056567
0.058168
0.059692
0.061243
0.062771
0.064124
0.064904
0.065548
0.065548
0.065467
0.064912
0.064402
0.06357
0.062032
0.060818
0.059714
0.058254
0.056822
0.055749
0.054848
0.05373
0.052382
0.05163
0.050584
0.049588
0.048934
0.048362
0.048205
0.048172
0.048505
0.04925
0.050032
0.050815
0.051327
0.052199
0.052877
0.053709
0.05442
0.054751
0.055423
0.055731
0.055844
0.055704
0.055987
0.055808
0.055573
0.055776
0.055997
0.056426
0.056697
0.05712
0.057886
0.058016
0.058449
0.058697
0.058706
0.058832
0.058837
0.058966
0.059425
0.059986
0.060215
0.060923
0.061728
0.062325
0.062959
0.063303
0.063573
0.063533
0.063262
0.06276
0.062359
0.061868
0.06131
0.060562
0.059286
0.057927
0.0565
0.054595
0.052448
0.05001
0.047424
0.04501
0.04199
0.038953
0.035927
0.032854
0.030161
0.026651
0.023331
0.01963
0.016
0.012782
0.0093568
0.0065303
0.0037572
0.0012747
-0.00059394
-0.0024342
-0.0037052
-0.0049161
-0.0060648
-0.0070258
-0.0070121
-0.0072582
-0.0063677
-0.0055661
-0.0038578
-0.0018867
0.00057673
0.0030856
0.0058848
0.0092156
0.01234
0.015572
0.019008
0.02193
0.025208
0.028174
0.031024
0.034013
0.036611
0.039202
0.041192
0.043288
0.044964
0.046194
0.04681
0.047382
0.047286
0.047537
0.047193
0.047014
0.04707
0.047162
0.047169
0.047263
0.047584
0.04811
0.048349
0.048679
0.048459
0.048584
0.048271
0.04784
0.047637
0.047394
0.047158
0.046418
0.045648
0.044942
0.044124
0.043292
0.042145
0.041121
0.039864
0.038268
0.036466
0.034573
0.032407
0.030137
0.027884
0.025468
0.022695
0.019443
0.015654
0.011289
0.0063994
0.00048707
-0.0061513
-0.013602
-0.022126
-0.031019
-0.040536
-0.050533
-0.061111
-0.071898
-0.083276
-0.094708
-0.10629
-0.11776
-0.12904
-0.13962
-0.14891
-0.15676
-0.16274
-0.16644
-0.1675
-0.16562
-0.16095
-0.15398
-0.14464
-0.13294
-0.11948
-0.1046
-0.088219
-0.070206
-0.051366
-0.030715
-0.0091437
0.013558
0.037566
0.062274
0.086755
0.11071
0.13374
0.15519
0.17457
0.19169
0.20638
0.21871
0.22876
0.23634
0.24155
0.24413
0.24412
0.24178
0.23695
0.22964
0.22006
0.20809
0.19429
0.17843
0.16129
0.14273
0.12384
0.1044
0.085064
0.0669
0.04924
0.032854
0.018589
0.0057748
-0.0048282
-0.013326
-0.020062
-0.024435
-0.027132
-0.027733
-0.026635
-0.024165
-0.020295
-0.015538
-0.0098901
-0.0036777
0.0031959
0.0096987
0.016191
0.021949
0.027398
0.031634
0.035406
0.038426
0.040851
0.042191
0.042841
0.043276
0.042826
0.042103
0.041125
0.039675
0.037829
0.036301
0.034599
0.032411
0.030872
0.029348
0.027881
0.026781
0.025504
0.024441
0.02356
0.02271
0.022064
0.021452
0.020783
0.020059
0.01924
0.018934
0.018339
0.017314
0.016637
0.016366
0.01593
0.01543
0.015288
0.015008
0.014698
0.014683
0.014056
0.013943
0.013826
0.013677
0.013257
0.013192
0.012741
0.012311
0.012024
0.011703
0.01138
0.01069
0.010071
0.0092862
0.0090204
0.0082067
0.0077577
0.0073312
0.006616
0.0063314
0.0060299
0.0057198
0.0056979
0.0058341
0.0061948
0.0064248
0.0067254
0.0073156
0.0077914
0.0078753
0.0081237
0.0080615
0.008046
0.0077
0.007624
0.0074479
0.0070773
0.0067037
0.0062218
0.0055214
0.0046593
0.0039958
0.0030408
0.0022975
0.0011736
0.00048121
-0.000348
-0.00096318
-0.0018171
-0.002609
-0.0032365
-0.004068
-0.0048461
-0.0061394
-0.0070209
-0.0079338
-0.0087712
-0.0097226
-0.010901
-0.011933
-0.012967
-0.014279
-0.016
-0.017679
-0.019455
-0.021613
-0.023085
-0.024944
-0.026583
-0.027792
-0.029285
-0.030611
-0.031847
-0.032745
-0.033817
-0.034568
-0.035777
-0.036241
-0.036675
-0.03757
-0.038476
-0.039402
-0.03981
-0.040405
-0.040832
-0.041212
-0.041442
-0.041788
-0.042347
-0.042922
-0.043248
-0.044334
-0.04484
-0.045485
-0.046139
-0.046676
-0.047267
-0.047827
-0.048217
-0.048705
-0.048915
-0.049165
-0.049509
-0.049584
-0.049459
-0.049733
-0.049644
-0.04976
-0.049684
-0.049825
-0.049802
-0.049637
-0.049776
-0.049809
-0.049831
-0.049876
-0.049935
-0.049996
-0.0502
-0.050077
-0.050329
-0.050162
-0.049695
-0.04925
-0.048556
-0.047909
-0.046948
-0.046041
-0.044781
-0.043636
-0.042257
-0.040405
-0.038843
-0.037021
-0.035049
-0.032581
-0.030092
-0.027187
-0.025005
-0.022239
-0.019697
-0.017442
-0.014578
-0.012382
-0.009642
-0.006811
-0.003774
-0.00088241
0.0017227
0.0046486
0.0072741
0.0099697
0.012484
0.015407
0.018151
0.020729
0.02317
0.025528
0.027827
0.030037
0.031953
0.033923
0.036333
0.038142
0.040109
0.041855
0.043604
0.045232
0.046426
0.047816
0.049127
0.05028
0.05142
0.052416
0.053555
0.054746
0.055282
0.056013
0.056603
0.057037
0.057367
0.05788
0.058396
0.058574
0.058736
0.058983
0.058944
0.058454
0.058609
0.058476
0.057857
0.057819
0.057378
0.057032
0.056673
0.056458
0.05637
0.05629
0.056434
0.05659
0.056766
0.057405
0.057789
0.05826
0.058865
0.059487
0.06024
0.060921
0.061955
0.062801
0.064056
0.065018
0.065962
0.066895
0.067712
0.068847
0.069479
0.070118
0.070455
0.070765
0.070397
0.069833
0.069345
0.068659
0.067949
0.067264
0.066311
0.065242
0.064477
0.063328
0.062414
0.061177
0.060017
0.058884
0.057811
0.056985
0.056692
0.056588
0.056445
0.056831
0.05745
0.057996
0.05865
0.059311
0.059714
0.060281
0.060134
0.060759
0.060833
0.060614
0.060411
0.059813
0.059676
0.059188
0.058763
0.058255
0.057334
0.056633
0.055333
0.054342
0.052957
0.051309
0.050362
0.049229
0.048029
0.047126
0.046204
0.045577
0.045105
0.04447
0.044535
0.044475
0.044527
0.044783
0.045046
0.045234
0.045291
0.045558
0.045486
0.045518
0.04559
0.045686
0.045556
0.045542
0.045437
0.044972
0.044499
0.043963
0.043435
0.042559
0.042273
0.041802
0.041186
0.040473
0.039574
0.038667
0.037914
0.036958
0.0364
0.035778
0.035553
0.035303
0.035143
0.035099
0.03505
0.034862
0.034748
0.034899
0.034889
0.034716
0.034882
0.035078
0.035303
0.035374
0.035949
0.036099
0.036687
0.036741
0.036933
0.037239
0.037177
0.037473
0.037739
0.037871
0.037972
0.038358
0.038609
0.039124
0.039458
0.039867
0.040031
0.040188
0.040988
0.040822
0.041083
0.041321
0.041418
0.041457
0.041743
0.041539
0.041593
0.041514
0.041408
0.04091
0.040591
0.040359
0.039888
0.039387
0.038911
0.038416
0.038007
0.037725
0.037535
0.037206
0.037301
0.037401
0.037382
0.037511
0.037735
0.03796
0.038722
0.039292
0.039793
0.040353
0.041191
0.041763
0.042086
0.042549
0.043133
0.043328
0.043743
0.043977
0.043932
0.043727
0.043853
0.043597
0.043595
0.043563
0.04326
0.043111
0.04279
0.042621
0.042257
0.042089
0.04211
0.041929
0.041688
0.041468
0.041448
0.041556
0.041371
0.041457
0.041373
0.041208
0.041364
0.041104
0.040868
0.040665
0.040386
0.039856
0.039621
0.039391
0.039317
0.039292
0.039441
0.04001
0.040368
0.040779
0.041372
0.0418
0.041844
0.042554
0.042628
0.042832
0.042737
0.042826
0.042807
0.042744
0.04257
0.042472
0.042395
0.04226
0.042005
0.041699
0.041002
0.040632
0.040142
0.039614
0.03947
0.038635
0.038138
0.037914
0.037981
0.037997
0.038116
0.03821
0.03852
0.038611
0.039351
0.039532
0.039692
0.040129
0.040543
0.041011
0.041027
0.04112
0.040769
0.040644
0.040502
0.040357
0.040242
0.040174
0.040425
0.040216
0.040463
0.040345
0.040129
0.040105
0.040021
0.039763
0.039865
0.040218
0.040326
0.041048
0.041874
0.042287
0.043026
0.043721
0.044058
0.044688
0.044791
0.045047
0.045178
0.045262
0.045454
0.045477
0.045437
0.045503
0.045291
0.045057
0.044277
0.0436
0.042453
0.041378
0.040395
0.039352
0.038441
0.03775
0.037027
0.036567
0.035987
0.035791
0.035536
0.035499
0.035372
0.035568
0.036106
0.036191
0.036775
0.037241
0.037766
0.038612
0.039213
0.040055
0.040879
0.041437
0.042026
0.042485
0.042953
0.042916
0.043238
0.042926
0.042721
0.042396
0.041913
0.041342
0.041068
0.040526
0.040063
0.039773
0.039278
0.038834
0.038485
0.038244
0.037688
0.037429
0.037169
0.037012
0.036985
0.037048
0.037192
0.037406
0.037676
0.03828
0.03898
0.039633
0.040475
0.041163
0.041798
0.042514
0.043071
0.043341
0.043477
0.043267
0.043426
0.043028
0.042759
0.042343
0.041898
0.04112
0.040713
0.039961
0.039311
0.038858
0.038025
0.037921
0.037303
0.037211
0.036795
0.036534
0.036289
0.036063
0.035872
0.036124
0.036736
0.03747
0.03816
0.039195
0.039713
0.040567
0.041426
0.04211
0.042673
0.043253
0.043633
0.044122
0.044294
0.04433
0.044558
0.044669
0.044982
0.045226
0.045158
0.045522
0.045507
0.045839
0.04598
0.045728
0.045683
0.04534
0.04505
0.04445
0.043454
0.042185
0.040972
0.039145
0.037077
0.035087
0.032528
0.030098
0.027302
0.024438
0.021523
0.018307
0.015391
0.012582
0.0098604
0.0071106
0.0045185
0.001903
-9.37E-05
-0.0021374
-0.0038443
-0.0052626
-0.0064416
-0.0073514
-0.0082994
-0.0083966
-0.0083432
-0.0076621
-0.0068018
-0.0052349
-0.0034998
-0.0016645
0.00098734
0.0035316
0.0064152
0.0098359
0.013314
0.016813
0.020287
0.02389
0.027428
0.031022
0.034355
0.037595
0.040523
0.043267
0.045806
0.047958
0.049855
0.051267
0.052067
0.052326
0.052014
0.051732
0.051017
0.050305
0.049319
0.048064
0.046876
0.045542
0.04461
0.043523
0.042538
0.041881
0.041284
0.04096
0.040636
0.040558
0.04073
0.040827
0.041058
0.041391
0.041958
0.042649
0.042733
0.043305
0.043474
0.043158
0.042743
0.041919
0.040959
0.03951
0.038189
0.036211
0.034103
0.031029
0.027566
0.023592
0.018901
0.013006
0.0062131
-0.0013161
-0.0098138
-0.019056
-0.028927
-0.039096
-0.049848
-0.060423
-0.071381
-0.082372
-0.093656
-0.10459
-0.11526
-0.12545
-0.1345
-0.14247
-0.14878
-0.15279
-0.15468
-0.15332
-0.14952
-0.14283
-0.13448
-0.12329
-0.11043
-0.096292
-0.080191
-0.063482
-0.044972
-0.025445
-0.00506
0.016803
0.039285
0.062629
0.085849
0.10918
0.13213
0.15347
0.17311
0.19074
0.20611
0.21911
0.22984
0.23819
0.24415
0.24807
0.24944
0.24848
0.24507
0.23938
0.2311
0.22063
0.20808
0.19361
0.178
0.16112
0.14329
0.12506
0.10657
0.088927
0.072279
0.056615
0.042453
0.029835
0.018983
0.0098132
0.0028926
-0.0022296
-0.0051893
-0.0067476
-0.0062704
-0.0042566
-0.0010532
0.002695
0.0079839
0.013566
0.019197
0.025125
0.03082
0.035856
0.040621
0.0447
0.048119
0.05088
0.052941
0.054724
0.055637
0.055714
0.055578
0.055295
0.054879
0.05363
0.052737
0.051383
0.050457
0.049105
0.047581
0.046173
0.045018
0.043749
0.042578
0.041852
0.041026
0.040189
0.039656
0.038993
0.038404
0.037995
0.037402
0.037028
0.036704
0.03612
0.035378
0.034949
0.03435
0.033923
0.033433
0.033137
0.032992
0.032515
0.032394
0.031796
0.031465
0.031039
0.03064
0.030158
0.029457
0.028838
0.028289
0.027771
0.027037
0.026414
0.025809
0.025231
0.02486
0.02452
0.023975
0.02363
0.023348
0.02315
0.022763
0.022753
0.022671
0.022614
0.022539
0.022517
0.022361
0.022296
0.022194
0.022579
0.022577
0.022266
0.022372
0.022114
0.021737
0.021386
0.021011
0.020682
0.02054
0.020163
0.020011
0.019629
0.019211
0.018998
0.018538
0.018322
0.017875
0.016878
0.015711
0.01472
0.013618
0.01246
0.011621
0.010789
0.0097131
0.0087498
0.0076221
0.0068565
0.0056678
0.0043789
0.0030712
0.0018401
0.00075738
-0.00015342
-0.0013007
-0.0021841
-0.0029243
-0.004009
-0.0044555
-0.0053626
-0.0060025
-0.0069044
-0.0075173
-0.0085987
-0.0094011
-0.010583
-0.011654
-0.013146
-0.014469
-0.015971
-0.017578
-0.018683
-0.019973
-0.021341
-0.022217
-0.023169
-0.024051
-0.024749
-0.025577
-0.026522
-0.027417
-0.028495
-0.029443
-0.03027
-0.030993
-0.031532
-0.032304
-0.032584
-0.033551
-0.033955
-0.034651
-0.035535
-0.035972
-0.036757
-0.037253
-0.037985
-0.038486
-0.03918
-0.039671
-0.040135
-0.040322
-0.040444
-0.040376
-0.040386
-0.040129
-0.039557
-0.038831
-0.037807
-0.037157
-0.036166
-0.03535
-0.033982
-0.033108
-0.031881
-0.030719
-0.029538
-0.028117
-0.026832
-0.025471
-0.024079
-0.023109
-0.022032
-0.020677
-0.019481
-0.017954
-0.016769
-0.015172
-0.013205
-0.011611
-0.0099559
-0.0082077
-0.0066578
-0.0050024
-0.0031272
-0.0014727
0.00011726
0.0018966
0.0035181
0.0055133
0.007147
0.0086953
0.010625
0.012455
0.014276
0.016066
0.017981
0.020048
0.022197
0.024232
0.027027
0.029413
0.031954
0.034421
0.037366
0.039888
0.042721
0.045366
0.047988
0.050431
0.052977
0.055357
0.057576
0.05981
0.061604
0.063274
0.06494
0.066458
0.067469
0.068722
0.069472
0.070458
0.070849
0.071274
0.071081
0.071081
0.070985
0.070135
0.069395
0.068607
0.067703
0.066821
0.066043
0.065332
0.064895
0.064432
0.06433
0.063994
0.063575
0.062873
0.062518
0.062215
0.061789
0.061457
0.061193
0.061113
0.061162
0.061421
0.061671
0.06234
0.062821
0.063438
0.064161
0.064818
0.065393
0.065609
0.065763
0.065993
0.06618
0.066059
0.066006
0.065984
0.06587
0.065798
0.065692
0.065856
0.065896
0.065602
0.065716
0.065746
0.065726
0.065887
0.06599
0.065978
0.066217
0.066112
0.066123
0.066253
0.066281
0.066363
0.066721
0.066956
0.067063
0.067062
0.066975
0.066569
0.066291
0.066
0.065303
0.064731
0.063783
0.062467
0.06137
0.060366
0.059076
0.057796
0.056691
0.055907
0.055264
0.054666
0.053929
0.053546
0.053254
0.052964
0.053082
0.052961
0.053284
0.053556
0.053858
0.054179
0.054651
0.054834
0.054693
0.054746
0.054116
0.053515
0.052756
0.052055
0.051301
0.049916
0.048753
0.047331
0.046329
0.044718
0.043409
0.042047
0.040906
0.039847
0.038888
0.038298
0.037678
0.037513
0.037086
0.037058
0.037105
0.037166
0.037391
0.037359
0.037603
0.037729
0.03795
0.038008
0.038136
0.038337
0.03846
0.038506
0.038538
0.038169
0.038332
0.038429
0.038404
0.038769
0.038751
0.039196
0.039307
0.039436
0.039518
0.039608
0.039732
0.039774
0.040369
0.040831
0.041121
0.041684
0.042112
0.042244
0.042866
0.043285
0.043571
0.044195
0.044577
0.045333
0.045756
0.046084
0.046576
0.046524
0.046206
0.046032
0.045798
0.045088
0.044689
0.044277
0.043796
0.043693
0.043333
0.042859
0.042519
0.042024
0.041936
0.041651
0.041591
0.041415
0.041818
0.042248
0.042592
0.043539
0.044475
0.045517
0.046597
0.047868
0.048919
0.049726
0.050757
0.0514
0.051551
0.051662
0.05148
0.051441
0.051121
0.050821
0.05025
0.049559
0.048959
0.048333
0.04721
0.046196
0.04543
0.044412
0.043386
0.042439
0.041787
0.041072
0.040532
0.040183
0.04023
0.040094
0.04013
0.040477
0.040627
0.040933
0.0412
0.041429
0.041543
0.041819
0.042185
0.042452
0.043199
0.043586
0.044134
0.044328
0.044548
0.044203
0.043834
0.043174
0.042548
0.042384
0.041873
0.04184
0.041844
0.042236
0.042584
0.043129
0.043493
0.043986
0.044226
0.044441
0.044413
0.044478
0.044641
0.044492
0.044669
0.044824
0.0451
0.045276
0.04526
0.04526
0.044939
0.044687
0.044364
0.04365
0.043053
0.042708
0.042256
0.042047
0.042055
0.042267
0.042713
0.043204
0.043939
0.044503
0.045206
0.045771
0.046529
0.047187
0.048051
0.048762
0.04941
0.050016
0.050611
0.05099
0.051233
0.05109
0.051293
0.051307
0.05071
0.050472
0.049973
0.049221
0.048448
0.047847
0.047254
0.046632
0.046363
0.046314
0.046277
0.046362
0.046677
0.047194
0.047366
0.047942
0.048679
0.04957
0.050376
0.051449
0.052164
0.052488
0.053179
0.053949
0.05418
0.054846
0.055341
0.055683
0.055745
0.055658
0.055097
0.054508
0.05318
0.051736
0.050144
0.048028
0.045987
0.043343
0.040486
0.037433
0.033905
0.030684
0.027403
0.024203
0.020994
0.017821
0.014735
0.011655
0.0085152
0.0054053
0.0025841
0.0002218
-0.0019462
-0.0035937
-0.0048241
-0.0058695
-0.0062385
-0.0059858
-0.0052955
-0.0046798
-0.0036212
-0.0019569
-8.05E-05
0.0022395
0.0046384
0.0074795
0.01052
0.013881
0.017149
0.020545
0.024114
0.027176
0.030334
0.033087
0.035751
0.037958
0.040003
0.041673
0.043168
0.04425
0.045141
0.045922
0.046502
0.047219
0.047556
0.047912
0.047938
0.047416
0.047236
0.047112
0.047005
0.046671
0.046645
0.04693
0.047009
0.047249
0.047368
0.047969
0.048492
0.048916
0.049392
0.04964
0.049867
0.050223
0.050064
0.049581
0.049543
0.048751
0.047834
0.046905
0.045712
0.0442
0.042504
0.040533
0.038712
0.036753
0.034668
0.032725
0.030399
0.027691
0.024685
0.021381
0.016887
0.012308
0.0068619
0.00096763
-0.0060448
-0.013516
-0.021767
-0.030769
-0.04021
-0.050182
-0.060528
-0.071623
-0.082527
-0.094009
-0.10565
-0.11714
-0.1283
-0.13823
-0.14713
-0.15423
-0.15851
-0.16075
-0.15999
-0.15629
-0.15021
-0.14104
-0.12951
-0.11561
-0.099459
-0.081667
-0.061917
-0.040653
-0.017862
0.0062054
0.031285
0.057828
0.084186
0.11155
0.13842
0.16411
0.18833
0.21004
0.22974
0.24659
0.26049
0.27156
0.28029
0.28561
0.28857
0.28828
0.28507
0.27936
0.27095
0.25987
0.24637
0.23113
0.21392
0.19518
0.1756
0.15536
0.13463
0.11405
0.094172
0.075242
0.057371
0.040815
0.026726
0.014252
0.0043299
-0.0030331
-0.0082864
-0.011453
-0.012985
-0.012619
-0.010917
-0.0078696
-0.0036426
0.001299
0.0069191
0.012747
0.01884
0.024667
0.030695
0.035915
0.040591
0.04488
0.047951
0.05025
0.052054
0.052655
0.053006
0.052752
0.052063
0.05109
0.049668
0.048
0.0461
0.044664
0.042614
0.04111
0.039396
0.037925
0.036589
0.035583
0.034651
0.034061
0.033646
0.03313
0.032954
0.032607
0.032309
0.032234
0.032145
0.032391
0.0321
0.032223
0.032273
0.032573
0.032582
0.032407
0.032276
0.032246
0.031785
0.031447
0.030938
0.030025
0.029369
0.028362
0.027545
0.026963
0.026386
0.025675
0.025172
0.024603
0.024248
0.024029
0.023557
0.023321
0.023163
0.023151
0.02344
0.023919
0.024816
0.025471
0.026146
0.026744
0.027277
0.027891
0.028288
0.028026
0.027932
0.027451
0.026594
0.02579
0.024896
0.023486
0.022499
0.021392
0.020112
0.01881
0.0173
0.016125
0.015118
0.014173
0.012854
0.012061
0.011117
0.010309
0.0093596
0.0086951
0.0083146
0.0080076
0.0075907
0.0072608
0.0068453
0.0064811
0.0055271
0.0050695
0.0041183
0.0033605
0.0026398
0.0017913
0.0010687
0.00015629
-0.00041363
-0.0012162
-0.0019805
-0.0025075
-0.0029873
-0.0034713
-0.0039188
-0.0042074
-0.0046925
-0.004977
-0.0052803
-0.0052531
-0.0055851
-0.0059934
-0.0068838
-0.0080412
-0.0094591
-0.011402
-0.013111
-0.014708
-0.016382
-0.017511
-0.019104
-0.020714
-0.022357
-0.024383
-0.02648
-0.028382
-0.030531
-0.032483
-0.034302
-0.036107
-0.037505
-0.038575
-0.039977
-0.040858
-0.041651
-0.042081
-0.042553
-0.042748
-0.042821
-0.043054
-0.043365
-0.043654
-0.04373
-0.043685
-0.04363
-0.043433
-0.043143
-0.043073
-0.042416
-0.042107
-0.041446
-0.041074
-0.040372
-0.040071
-0.039661
-0.039327
-0.038821
-0.038541
-0.038168
-0.037783
-0.037343
-0.036848
-0.036142
-0.035519
-0.034672
-0.033675
-0.033015
-0.032064
-0.030515
-0.029351
-0.028024
-0.026248
-0.024268
-0.022069
-0.019633
-0.017157
-0.014514
-0.011612
-0.0089296
-0.005633
-0.0024593
0.0004386
0.0037993
0.0069377
0.010069
0.013103
0.016528
0.019802
0.023177
0.026196
0.029308
0.032615
0.035439
0.038294
0.041222
0.044032
0.046621
0.049485
0.051845
0.054264
0.056686
0.059051
0.060943
0.063137
0.065258
0.067113
0.069118
0.071098
0.072796
0.074577
0.076026
0.077293
0.078602
0.079412
0.080035
0.080245
0.080266
0.080537
0.080697
0.080725
0.080639
0.080714
0.080481
0.080362
0.080255
0.080208
0.08025
0.080444
0.080641
0.080978
0.081426
0.081616
0.082049
0.082264
0.082813
0.083175
0.083414
0.083776
0.083813
0.083952
0.084017
0.083831
0.084147
0.08376
0.083437
0.082943
0.082198
0.081723
0.081421
0.080944
0.080552
0.080351
0.080394
0.080346
0.080382
0.080495
0.080574
0.080791
0.081306
0.082085
0.083056
0.083943
0.084711
0.085556
0.086068
0.086349
0.086485
0.086781
0.086832
0.086818
0.086442
0.085521
0.084927
0.084084
0.083206
0.081982
0.080599
0.079967
0.078926
0.07762
0.07633
0.075082
0.074403
0.073598
0.072912
0.072073
0.07171
0.071261
0.070752
0.070125
0.069915
0.069633
0.069725
0.069883
0.069987
0.070108
0.070072
0.069996
0.069788
0.069533
0.069047
0.068594
0.067764
0.066858
0.065895
0.064877
0.063371
0.062558
0.061502
0.059919
0.058766
0.057074
0.055512
0.054121
0.052441
0.051156
0.049972
0.04909
0.048471
0.047889
0.04749
0.047442
0.04691
0.046628
0.046989
0.046562
0.046784
0.047018
0.047438
0.047721
0.048169
0.048118
0.048082
0.048276
0.04831
0.048277
0.047801
0.047864
0.047834
0.047362
0.047171
0.04657
0.046353
0.045633
0.044899
0.044454
0.043937
0.043003
0.042453
0.042108
0.041798
0.04164
0.041479
0.041618
0.041649
0.041527
0.0416
0.04152
0.04152
0.041623
0.041614
0.041384
0.041126
0.040857
0.040468
0.040426
0.040193
0.039642
0.039598
0.039418
0.039398
0.039127
0.039414
0.039341
0.039521
0.039416
0.039589
0.039572
0.039785
0.040158
0.040487
0.040693
0.040916
0.041262
0.041878
0.042165
0.042798
0.043442
0.044134
0.044856
0.04546
0.046108
0.046428
0.046681
0.047038
0.047056
0.047364
0.047338
0.047708
0.048099
0.048572
0.049197
0.04943
0.049941
0.050251
0.05068
0.050864
0.051088
0.050856
0.050658
0.050576
0.050503
0.050277
0.050099
0.049807
0.049386
0.048575
0.047801
0.046707
0.045761
0.044734
0.043737
0.042795
0.041901
0.040733
0.04012
0.03965
0.038957
0.038463
0.038608
0.038424
0.038514
0.038568
0.038386
0.038776
0.03924
0.03957
0.039765
0.040221
0.040559
0.040844
0.041054
0.041467
0.041969
0.042011
0.042423
0.042651
0.042694
0.042689
0.042769
0.042508
0.042275
0.042247
0.042213
0.042026
0.042107
0.042102
0.041846
0.042127
0.042369
0.042536
0.042644
0.042859
0.042914
0.043045
0.042735
0.042722
0.042508
0.042359
0.042817
0.042881
0.04315
0.04348
0.04346
0.043188
0.043182
0.042919
0.042617
0.042508
0.042283
0.042378
0.042554
0.042501
0.042569
0.042804
0.042679
0.042597
0.042237
0.041948
0.041791
0.041868
0.0418
0.041831
0.042094
0.042362
0.042581
0.043358
0.043954
0.04439
0.045212
0.045885
0.046365
0.046705
0.047213
0.047899
0.048237
0.048928
0.049515
0.05006
0.050888
0.051515
0.052232
0.052706
0.052859
0.053065
0.05275
0.052415
0.051807
0.051276
0.050542
0.049318
0.048093
0.046719
0.045535
0.043985
0.042293
0.040592
0.038468
0.036644
0.034587
0.031837
0.029358
0.026742
0.023997
0.021259
0.018561
0.015921
0.012856
0.0096541
0.0070274
0.0041638
0.0013713
-0.0011593
-0.0036059
-0.0059575
-0.0078461
-0.0093911
-0.010739
-0.011764
-0.012273
-0.012638
-0.012352
-0.011778
-0.011137
-0.0093677
-0.0077766
-0.0055817
-0.0025487
0.0006213
0.00422
0.0080422
0.011654
0.015985
0.020258
0.024027
0.027944
0.031347
0.034738
0.037537
0.040125
0.041954
0.043612
0.04507
0.046247
0.046873
0.047241
0.047333
0.047025
0.046567
0.045989
0.045219
0.044257
0.042988
0.042091
0.040997
0.040037
0.039329
0.038627
0.037961
0.037484
0.037282
0.036977
0.036907
0.036887
0.036863
0.036992
0.037244
0.037054
0.037147
0.03706
0.036882
0.036562
0.035989
0.03575
0.034753
0.033993
0.032799
0.031308
0.02984
0.027885
0.02596
0.023372
0.020278
0.01689
0.01269
0.0078629
0.00266
-0.0037528
-0.01056
-0.018724
-0.027322
-0.036573
-0.046356
-0.056021
-0.066516
-0.07728
-0.088156
-0.098984
-0.10999
-0.12092
-0.13131
-0.14061
-0.14855
-0.15493
-0.15886
-0.16038
-0.15932
-0.15589
-0.14934
-0.1404
-0.12951
-0.11638
-0.10182
-0.085316
-0.066616
-0.046529
-0.02496
-0.0015148
0.022813
0.048505
0.074465
0.10035
0.12613
0.15093
0.17405
0.19472
0.21385
0.22981
0.2432
0.25398
0.26177
0.26696
0.26889
0.268
0.2644
0.25761
0.24836
0.23661
0.22239
0.20628
0.18878
0.17028
0.15081
0.13111
0.11111
0.0916
0.073539
0.055836
0.039658
0.025493
0.01282
0.0025317
-0.0055383
-0.011648
-0.015527
-0.017397
-0.017682
-0.016406
-0.013144
-0.0092189
-0.004367
0.0012752
0.0069177
0.013098
0.019002
0.024818
0.030208
0.035148
0.039373
0.042554
0.045728
0.047972
0.049407
0.050117
0.050342
0.049852
0.049118
0.048204
0.046559
0.045009
0.043052
0.041696
0.039872
0.037706
0.036121
0.034519
0.032931
0.03162
0.030316
0.029288
0.028078
0.027335
0.026683
0.025723
0.025305
0.024913
0.024624
0.024446
0.024536
0.024731
0.024851
0.025093
0.025271
0.0255
0.025637
0.026059
0.026385
0.026929
0.027334
0.027411
0.028013
0.02834
0.028379
0.028097
0.02814
0.027787
0.027016
0.026469
0.025667
0.024996
0.024243
0.023584
0.023037
0.02234
0.021553
0.020775
0.020278
0.019195
0.018566
0.017846
0.017357
0.017273
0.01696
0.016702
0.016627
0.016875
0.017052
0.016804
0.016748
0.016422
0.016402
0.016056
0.016084
0.015886
0.015512
0.015207
0.014627
0.014128
0.013151
0.012313
0.011713
0.010879
0.010195
0.009312
0.0083671
0.0074317
0.006411
0.0056232
0.0048564
0.0041376
0.0033848
0.0027883
0.0021637
0.0014591
0.00085597
0.00017065
-0.00062799
-0.0013869
-0.0019492
-0.0027327
-0.0035266
-0.0042541
-0.0051176
-0.006
-0.0068428
-0.0079278
-0.0088005
-0.010128
-0.011036
-0.012134
-0.013298
-0.01434
-0.015274
-0.016661
-0.017449
-0.018509
-0.019667
-0.02112
-0.022105
-0.023153
-0.024234
-0.025774
-0.027144
-0.027982
-0.029435
-0.030648
-0.031585
-0.032848
-0.033693
-0.034494
-0.035496
-0.036303
-0.036946
-0.038163
-0.038676
-0.039543
-0.040134
-0.040364
-0.040623
-0.040577
-0.040493
-0.040278
-0.040144
-0.039933
-0.039717
-0.039136
-0.038949
-0.03858
-0.038458
-0.038258
-0.037767
-0.037581
-0.037021
-0.036949
-0.036644
-0.036211
-0.035803
-0.035208
-0.034882
-0.034302
-0.033543
-0.03289
-0.032096
-0.031074
-0.030206
-0.028842
-0.027722
-0.026615
-0.025147
-0.023367
-0.02174
-0.019851
-0.017956
-0.016109
-0.014192
-0.012015
-0.009699
-0.0077179
-0.005121
-0.0028671
-0.00028019
0.0024988
0.0054363
0.0080961
0.011132
0.014364
0.017654
0.021113
0.024269
0.027636
0.030736
0.03382
0.036902
0.040239
0.043247
0.046095
0.049008
0.051589
0.053938
0.056021
0.058234
0.06015
0.061988
0.063527
0.06488
0.0661
0.067455
0.068608
0.069553
0.070575
0.071378
0.071981
0.072771
0.073614
0.073952
0.07489
0.075332
0.075889
0.076868
0.07805
0.078914
0.079766
0.080263
0.08107
0.081782
0.082361
0.082827
0.08298
0.0831
0.083248
0.083247
0.083486
0.08314
0.082919
0.082742
0.082757
0.082174
0.08158
0.081493
0.080511
0.080022
0.079759
0.079421
0.078657
0.078058
0.077567
0.077102
0.076416
0.076014
0.075508
0.07514
0.074845
0.074789
0.074523
0.074523
0.074614
0.074611
0.074614
0.074546
0.074738
0.074929
0.074911
0.075228
0.075586
0.07583
0.076116
0.076088
0.076449
0.076694
0.076689
0.076751
0.076823
0.076919
0.076663
0.076455
0.075988
0.075217
0.074509
0.073762
0.072936
0.072012
0.071163
0.070139
0.069276
0.068073
0.067274
0.066598
0.066025
0.065648
0.065374
0.065517
0.065261
0.065405
0.06566
0.065903
0.065931
0.065811
0.065543
0.065216
0.064877
0.064235
0.063664
0.06317
0.062489
0.06194
0.06095
0.06012
0.059295
0.057646
0.056257
0.055225
0.05389
0.052253
0.05104
0.049692
0.048386
0.047373
0.046588
0.045968
0.04558
0.045349
0.045302
0.045103
0.044922
0.044686
0.044606
0.044408
0.044271
0.043718
0.043185
0.042953
0.042354
0.042076
0.041515
0.041267
0.041042
0.040685
0.040533
0.04008
0.039651
0.039266
0.039218
0.03884
0.038407
0.038532
0.039079
0.039197
0.039687
0.040111
0.040695
0.041035
0.041336
0.041548
0.041818
0.042102
0.042604
0.042788
0.04369
0.044411
0.044838
0.044967
0.045579
0.045573
0.045785
0.045801
0.045814
0.045562
0.045369
0.045602
0.045514
0.045872
0.046097
0.046309
0.046394
0.046582
0.046548
0.046564
0.046507
0.046515
0.046518
0.046448
0.04669
0.046703
0.047028
0.047188
0.047595
0.047671
0.047891
0.048368
0.048403
0.048816
0.049022
0.049374
0.049636
0.049709
0.049787
0.049782
0.049715
0.049636
0.049688
0.049616
0.049765
0.049882
0.050061
0.050086
0.049923
0.049925
0.049972
0.050022
0.049967
0.050163
0.05018
0.050054
0.05025
0.049584
0.049309
0.048734
0.048125
0.04759
0.047232
0.046865
0.046581
0.045908
0.045463
0.04528
0.044639
0.043914
0.043202
0.042836
0.042329
0.042114
0.042092
0.042413
0.042738
0.043288
0.044086
0.04449
0.044919
0.04582
0.046295
0.046846
0.047567
0.048196
0.048623
0.049068
0.049555
0.049929
0.050001
0.050168
0.050311
0.050248
0.050089
0.049821
0.049447
0.049082
0.048552
0.04799
0.047432
0.046677
0.046423
0.045893
0.045161
0.045006
0.044372
0.04418
0.043995
0.044067
0.043695
0.043764
0.043688
0.043747
0.04364
0.043607
0.04391
0.0437
0.043808
0.04386
0.043611
0.043698
0.04386
0.044009
0.044641
0.044992
0.045168
0.045699
0.046009
0.046378
0.046919
